Column1,Column2
2.4183e+06,2043
2.4183e+06,2042
2.4183e+06,2042
2.4183e+06,2032
2.4183e+06,2023
2.4183e+06,2029
2.4183e+06,2028
2.4183e+06,2023
2.4184e+06,2013
2.4184e+06,1995
2.4184e+06,2000
2.4184e+06,1990
2.4184e+06,1978
2.4184e+06,1990
2.4184e+06,1986
2.4184e+06,1981
2.4184e+06,1991
2.4184e+06,1990
2.4184e+06,1978
2.4184e+06,1996
2.4184e+06,1989
2.4184e+06,1995
2.4184e+06,1994
2.4184e+06,2000
2.4184e+06,1997
2.4184e+06,1992
2.4184e+06,2002
2.4184e+06,2004
2.4184e+06,2001
2.4184e+06,1998
2.4184e+06,1992
2.4184e+06,1983
2.4184e+06,1971
2.4185e+06,1987
2.4185e+06,2024
2.4185e+06,2078
2.4185e+06,2148
2.4185e+06,2217
2.4185e+06,2261
2.4185e+06,2294
2.4185e+06,2255
2.4185e+06,2193
2.4185e+06,2124
2.4185e+06,2065
2.4185e+06,2021
2.4185e+06,2007
2.4185e+06,2014
2.4185e+06,2018
2.4185e+06,2019
2.4185e+06,2023
2.4185e+06,2023
2.4185e+06,2015
2.4185e+06,2022
2.4185e+06,2021
2.4185e+06,2019
2.4185e+06,2017
2.4185e+06,2019
2.4185e+06,2026
2.4185e+06,2019
2.4186e+06,2011
2.4186e+06,2015
2.4186e+06,2015
2.4186e+06,2025
2.4186e+06,2025
2.4186e+06,2023
2.4186e+06,2010
2.4186e+06,2020
2.4186e+06,2020
2.4186e+06,2020
2.4186e+06,2022
2.4186e+06,2022
2.4186e+06,2024
2.4186e+06,2023
2.4186e+06,2026
2.4186e+06,2022
2.4186e+06,2022
2.4186e+06,2019
2.4186e+06,2025
2.4186e+06,2027
2.4186e+06,2026
2.4186e+06,2025
2.4186e+06,2023
2.4186e+06,2028
2.4186e+06,2029
2.4187e+06,2029
2.4187e+06,2038
2.4187e+06,2037
2.4187e+06,2033
2.4187e+06,2044
2.4187e+06,2037
2.4187e+06,2045
2.4187e+06,2032
2.4187e+06,2050
2.4187e+06,2051
2.4187e+06,2056
2.4187e+06,2051
2.4187e+06,2051
2.4187e+06,2055
2.4187e+06,2064
2.4187e+06,2060
2.4187e+06,2063
2.4187e+06,2060
2.4187e+06,2068
2.4187e+06,2071
2.4187e+06,2071
2.4187e+06,2065
2.4187e+06,2069
2.4187e+06,2069
2.4187e+06,2066
2.4187e+06,2070
2.4188e+06,2065
2.4188e+06,2055
2.4188e+06,2053
2.4188e+06,2048
2.4188e+06,2043
2.4188e+06,2039
2.4188e+06,2031
2.4188e+06,2028
2.4188e+06,2026
2.4188e+06,2024
2.4188e+06,2021
2.4188e+06,2017
2.4188e+06,2012
2.4188e+06,2013
2.4188e+06,2018
2.4188e+06,2014
2.4188e+06,2012
2.4188e+06,2011
2.4188e+06,2017
2.4188e+06,2017
2.4188e+06,2015
2.4188e+06,2013
2.4188e+06,2006
2.4188e+06,2009
2.4188e+06,2019
2.4188e+06,2008
2.4189e+06,2011
2.4189e+06,2001
2.4189e+06,2018
2.4189e+06,2015
2.4189e+06,2011
2.4189e+06,2012
2.4189e+06,2013
2.4189e+06,2008
2.4189e+06,2016
2.4189e+06,2015
2.4189e+06,2015
2.4189e+06,2010
2.4189e+06,2013
2.4189e+06,2014
2.4189e+06,2016
2.4189e+06,2014
2.4189e+06,2013
2.4189e+06,2015
2.4189e+06,2012
2.4189e+06,2015
2.4189e+06,2009
2.4189e+06,2004
2.4189e+06,2010
2.4189e+06,2013
2.4189e+06,2022
2.419e+06,2016
2.419e+06,2014
2.419e+06,2010
2.419e+06,2009
2.419e+06,2019
2.419e+06,2016
2.419e+06,2020
2.419e+06,2028
2.419e+06,2027
2.419e+06,2031
2.419e+06,2033
2.419e+06,2030
2.419e+06,2043
2.419e+06,2045
2.419e+06,2046
2.419e+06,2056
2.419e+06,2048
2.419e+06,2052
2.419e+06,2052
2.419e+06,2052
2.419e+06,2049
2.419e+06,2044
2.419e+06,2025
2.419e+06,2022
2.419e+06,2016
2.419e+06,2015
2.4191e+06,2009
2.4191e+06,2004
2.4191e+06,2016
2.4191e+06,2011
2.4191e+06,2010
2.4191e+06,2010
2.4191e+06,2004
2.4191e+06,2005
2.4191e+06,2006
2.4191e+06,2005
2.4191e+06,2007
2.4191e+06,1999
2.4191e+06,2006
2.4191e+06,2010
2.4191e+06,2011
2.4191e+06,2001
2.4191e+06,2002
2.4191e+06,1990
2.4191e+06,1980
2.4191e+06,1979
2.4191e+06,1994
2.4191e+06,2035
2.4191e+06,2093
2.4191e+06,2171
2.4191e+06,2230
2.4192e+06,2272
2.4192e+06,2283
2.4192e+06,2232
2.4192e+06,2174
2.4192e+06,2107
2.4192e+06,2048
2.4192e+06,2015
2.4192e+06,2004
2.4192e+06,2003
2.4192e+06,2016
2.4192e+06,2011
2.4192e+06,2016
2.4192e+06,2007
2.4192e+06,2011
2.4192e+06,2012
2.4192e+06,2010
2.4192e+06,2005
2.4192e+06,2007
2.4192e+06,2010
2.4192e+06,2011
2.4192e+06,2015
2.4192e+06,2009
2.4192e+06,2008
2.4192e+06,2009
2.4192e+06,2012
2.4192e+06,2007
2.4193e+06,2012
2.4193e+06,2015
2.4193e+06,2010
2.4193e+06,2020
2.4193e+06,2014
2.4193e+06,2014
2.4193e+06,2010
2.4193e+06,2013
2.4193e+06,2017
2.4193e+06,2019
2.4193e+06,2026
2.4193e+06,2017
2.4193e+06,2019
2.4193e+06,2020
2.4193e+06,2023
2.4193e+06,2025
2.4193e+06,2024
2.4193e+06,2019
2.4193e+06,2035
2.4193e+06,2030
2.4193e+06,2031
2.4193e+06,2032
2.4193e+06,2026
2.4193e+06,2039
2.4193e+06,2033
2.4193e+06,2045
2.4194e+06,2040
2.4194e+06,2035
2.4194e+06,2044
2.4194e+06,2049
2.4194e+06,2053
2.4194e+06,2051
2.4194e+06,2055
2.4194e+06,2051
2.4194e+06,2060
2.4194e+06,2063
2.4194e+06,2059
2.4194e+06,2058
2.4194e+06,2061
2.4194e+06,2067
2.4194e+06,2060
2.4194e+06,2067
2.4194e+06,2059
2.4194e+06,2071
2.4194e+06,2058
2.4194e+06,2061
2.4194e+06,2053
2.4194e+06,2045
2.4194e+06,2051
2.4194e+06,2044
2.4194e+06,2043
2.4195e+06,2036
2.4195e+06,2026
2.4195e+06,2022
2.4195e+06,2023
2.4195e+06,2024
2.4195e+06,2020
2.4195e+06,2014
2.4195e+06,2003
2.4195e+06,2015
2.4195e+06,2017
2.4195e+06,2010
2.4195e+06,2009
2.4195e+06,2011
2.4195e+06,2011
2.4195e+06,2014
2.4195e+06,2010
2.4195e+06,2017
2.4195e+06,2005
2.4195e+06,2007
2.4195e+06,2011
2.4195e+06,2013
2.4195e+06,2011
2.4195e+06,2012
2.4195e+06,2011
2.4195e+06,2022
2.4195e+06,2022
2.4196e+06,2004
2.4196e+06,2008
2.4196e+06,2016
2.4196e+06,2019
2.4196e+06,2016
2.4196e+06,2016
2.4196e+06,2010
2.4196e+06,2007
2.4196e+06,2014
2.4196e+06,2011
2.4196e+06,2017
2.4196e+06,2006
2.4196e+06,2015
2.4196e+06,2011
2.4196e+06,2016
2.4196e+06,2015
2.4196e+06,2008
2.4196e+06,2007
2.4196e+06,2014
2.4196e+06,2018
2.4196e+06,2014
2.4196e+06,2013
2.4196e+06,2008
2.4196e+06,2017
2.4196e+06,2013
2.4197e+06,2007
2.4197e+06,2009
2.4197e+06,2009
2.4197e+06,2023
2.4197e+06,2019
2.4197e+06,2023
2.4197e+06,2017
2.4197e+06,2017
2.4197e+06,2021
2.4197e+06,2022
2.4197e+06,2026
2.4197e+06,2037
2.4197e+06,2039
2.4197e+06,2048
2.4197e+06,2042
2.4197e+06,2044
2.4197e+06,2045
2.4197e+06,2051
2.4197e+06,2049
2.4197e+06,2045
2.4197e+06,2045
2.4197e+06,2037
2.4197e+06,2015
2.4197e+06,2011
2.4197e+06,2010
2.4197e+06,2011
2.4198e+06,2003
2.4198e+06,1996
2.4198e+06,2010
2.4198e+06,2003
2.4198e+06,2006
2.4198e+06,1999
2.4198e+06,1999
2.4198e+06,2000
2.4198e+06,2006
2.4198e+06,2003
2.4198e+06,2004
2.4198e+06,2003
2.4198e+06,1998
2.4198e+06,2000
2.4198e+06,2003
2.4198e+06,1991
2.4198e+06,1991
2.4198e+06,1972
2.4198e+06,1964
2.4198e+06,1983
2.4198e+06,2016
2.4198e+06,2062
2.4198e+06,2134
2.4198e+06,2205
2.4198e+06,2253
2.4198e+06,2284
2.4199e+06,2247
2.4199e+06,2188
2.4199e+06,2122
2.4199e+06,2057
2.4199e+06,2012
2.4199e+06,2003
2.4199e+06,1999
2.4199e+06,2005
2.4199e+06,2008
2.4199e+06,2007
2.4199e+06,2011
2.4199e+06,2001
2.4199e+06,2003
2.4199e+06,2002
2.4199e+06,2005
2.4199e+06,1999
2.4199e+06,2002
2.4199e+06,2005
2.4199e+06,2000
2.4199e+06,2007
2.4199e+06,2004
2.4199e+06,2004
2.4199e+06,2006
2.4199e+06,2003
2.4199e+06,2011
2.42e+06,2007
2.42e+06,2005
2.42e+06,2001
2.42e+06,2009
2.42e+06,2013
2.42e+06,2010
2.42e+06,2003
2.42e+06,2008
2.42e+06,2020
2.42e+06,2019
2.42e+06,2012
2.42e+06,2013
2.42e+06,2015
2.42e+06,2016
2.42e+06,2019
2.42e+06,2019
2.42e+06,2025
2.42e+06,2019
2.42e+06,2023
2.42e+06,2028
2.42e+06,2031
2.42e+06,2030
2.42e+06,2021
2.42e+06,2031
2.42e+06,2041
2.42e+06,2036
2.4201e+06,2035
2.4201e+06,2036
2.4201e+06,2043
2.4201e+06,2047
2.4201e+06,2051
2.4201e+06,2050
2.4201e+06,2049
2.4201e+06,2057
2.4201e+06,2058
2.4201e+06,2057
2.4201e+06,2062
2.4201e+06,2053
2.4201e+06,2059
2.4201e+06,2065
2.4201e+06,2069
2.4201e+06,2063
2.4201e+06,2059
2.4201e+06,2059
2.4201e+06,2058
2.4201e+06,2056
2.4201e+06,2051
2.4201e+06,2043
2.4201e+06,2041
2.4201e+06,2038
2.4201e+06,2035
2.4202e+06,2033
2.4202e+06,2020
2.4202e+06,2016
2.4202e+06,2017
2.4202e+06,2022
2.4202e+06,2022
2.4202e+06,2013
2.4202e+06,2003
2.4202e+06,2011
2.4202e+06,2012
2.4202e+06,2006
2.4202e+06,2002
2.4202e+06,2009
2.4202e+06,2013
2.4202e+06,2020
2.4202e+06,2009
2.4202e+06,2009
2.4202e+06,2010
2.4202e+06,2007
2.4202e+06,2011
2.4202e+06,2015
2.4202e+06,2010
2.4202e+06,2012
2.4202e+06,2005
2.4202e+06,2015
2.4202e+06,2019
2.4203e+06,2017
2.4203e+06,2010
2.4203e+06,2011
2.4203e+06,2016
2.4203e+06,2017
2.4203e+06,2012
2.4203e+06,2008
2.4203e+06,2013
2.4203e+06,2016
2.4203e+06,2006
2.4203e+06,2010
2.4203e+06,2018
2.4203e+06,2011
2.4203e+06,2007
2.4203e+06,2015
2.4203e+06,2016
2.4203e+06,2011
2.4203e+06,2008
2.4203e+06,2013
2.4203e+06,2014
2.4203e+06,2011
2.4203e+06,2006
2.4203e+06,2001
2.4203e+06,2004
2.4203e+06,2006
2.4203e+06,2012
2.4204e+06,2007
2.4204e+06,2006
2.4204e+06,2003
2.4204e+06,2008
2.4204e+06,2003
2.4204e+06,2006
2.4204e+06,2010
2.4204e+06,2012
2.4204e+06,2017
2.4204e+06,2024
2.4204e+06,2015
2.4204e+06,2019
2.4204e+06,2021
2.4204e+06,2027
2.4204e+06,2037
2.4204e+06,2040
2.4204e+06,2044
2.4204e+06,2047
2.4204e+06,2045
2.4204e+06,2048
2.4204e+06,2045
2.4204e+06,2043
2.4204e+06,2039
2.4204e+06,2041
2.4204e+06,2038
2.4205e+06,2029
2.4205e+06,2012
2.4205e+06,2009
2.4205e+06,2007
2.4205e+06,2007
2.4205e+06,2007
2.4205e+06,2003
2.4205e+06,2004
2.4205e+06,2005
2.4205e+06,2012
2.4205e+06,2001
2.4205e+06,1998
2.4205e+06,2004
2.4205e+06,2002
2.4205e+06,2010
2.4205e+06,1999
2.4205e+06,2001
2.4205e+06,2005
2.4205e+06,1997
2.4205e+06,2001
2.4205e+06,1999
2.4205e+06,1984
2.4205e+06,1968
2.4205e+06,1974
2.4205e+06,1999
2.4205e+06,2058
2.4206e+06,2118
2.4206e+06,2184
2.4206e+06,2235
2.4206e+06,2283
2.4206e+06,2266
2.4206e+06,2209
2.4206e+06,2143
2.4206e+06,2081
2.4206e+06,2027
2.4206e+06,2004
2.4206e+06,2005
2.4206e+06,2001
2.4206e+06,2004
2.4206e+06,2016
2.4206e+06,2017
2.4206e+06,2013
2.4206e+06,2005
2.4206e+06,2007
2.4206e+06,2010
2.4206e+06,2014
2.4206e+06,2006
2.4206e+06,2006
2.4206e+06,2010
2.4206e+06,2008
2.4206e+06,2013
2.4207e+06,2009
2.4207e+06,2009
2.4207e+06,2010
2.4207e+06,2014
2.4207e+06,2013
2.4207e+06,2011
2.4207e+06,2015
2.4207e+06,2010
2.4207e+06,2011
2.4207e+06,2019
2.4207e+06,2017
2.4207e+06,2013
2.4207e+06,2015
2.4207e+06,2023
2.4207e+06,2023
2.4207e+06,2017
2.4207e+06,2021
2.4207e+06,2018
2.4207e+06,2023
2.4207e+06,2026
2.4207e+06,2027
2.4207e+06,2028
2.4207e+06,2024
2.4207e+06,2028
2.4207e+06,2035
2.4207e+06,2027
2.4208e+06,2028
2.4208e+06,2031
2.4208e+06,2039
2.4208e+06,2043
2.4208e+06,2046
2.4208e+06,2040
2.4208e+06,2044
2.4208e+06,2053
2.4208e+06,2052
2.4208e+06,2056
2.4208e+06,2056
2.4208e+06,2060
2.4208e+06,2061
2.4208e+06,2059
2.4208e+06,2067
2.4208e+06,2070
2.4208e+06,2071
2.4208e+06,2063
2.4208e+06,2068
2.4208e+06,2072
2.4208e+06,2071
2.4208e+06,2067
2.4208e+06,2061
2.4208e+06,2063
2.4208e+06,2062
2.4208e+06,2056
2.4209e+06,2051
2.4209e+06,2044
2.4209e+06,2039
2.4209e+06,2035
2.4209e+06,2032
2.4209e+06,2032
2.4209e+06,2023
2.4209e+06,2019
2.4209e+06,2021
2.4209e+06,2024
2.4209e+06,2018
2.4209e+06,2010
2.4209e+06,2013
2.4209e+06,2011
2.4209e+06,2018
2.4209e+06,2002
2.4209e+06,2013
2.4209e+06,2010
2.4209e+06,2013
2.4209e+06,2012
2.4209e+06,2015
2.4209e+06,2015
2.4209e+06,2017
2.4209e+06,2019
2.4209e+06,2019
2.421e+06,2019
2.421e+06,2013
2.421e+06,2010
2.421e+06,2014
2.421e+06,2017
2.421e+06,2022
2.421e+06,2011
2.421e+06,2018
2.421e+06,2023
2.421e+06,2025
2.421e+06,2023
2.421e+06,2017
2.421e+06,2020
2.421e+06,2022
2.421e+06,2021
2.421e+06,2022
2.421e+06,2019
2.421e+06,2017
2.421e+06,2019
2.421e+06,2016
2.421e+06,2023
2.421e+06,2023
2.421e+06,2015
2.421e+06,2019
2.421e+06,2020
2.421e+06,2024
2.4211e+06,2017
2.4211e+06,2016
2.4211e+06,2016
2.4211e+06,2023
2.4211e+06,2017
2.4211e+06,2022
2.4211e+06,2011
2.4211e+06,2014
2.4211e+06,2018
2.4211e+06,2023
2.4211e+06,2021
2.4211e+06,2020
2.4211e+06,2018
2.4211e+06,2021
2.4211e+06,2022
2.4211e+06,2024
2.4211e+06,2028
2.4211e+06,2016
2.4211e+06,2037
2.4211e+06,2034
2.4211e+06,2035
2.4211e+06,2026
2.4211e+06,2032
2.4211e+06,2035
2.4211e+06,2053
2.4212e+06,2060
2.4212e+06,2059
2.4212e+06,2058
2.4212e+06,2057
2.4212e+06,2061
2.4212e+06,2064
2.4212e+06,2058
2.4212e+06,2051
2.4212e+06,2047
2.4212e+06,2040
2.4212e+06,2035
2.4212e+06,2024
2.4212e+06,2024
2.4212e+06,2020
2.4212e+06,2032
2.4212e+06,2026
2.4212e+06,2019
2.4212e+06,2018
2.4212e+06,2021
2.4212e+06,2020
2.4212e+06,2023
2.4212e+06,2024
2.4212e+06,2022
2.4212e+06,2019
2.4212e+06,2020
2.4212e+06,2025
2.4213e+06,2025
2.4213e+06,2010
2.4213e+06,2018
2.4213e+06,2015
2.4213e+06,2007
2.4213e+06,1997
2.4213e+06,1999
2.4213e+06,2033
2.4213e+06,2091
2.4213e+06,2160
2.4213e+06,2220
2.4213e+06,2270
2.4213e+06,2295
2.4213e+06,2257
2.4213e+06,2205
2.4213e+06,2141
2.4213e+06,2078
2.4213e+06,2034
2.4213e+06,2025
2.4213e+06,2028
2.4213e+06,2028
2.4213e+06,2027
2.4213e+06,2023
2.4213e+06,2039
2.4213e+06,2038
2.4213e+06,2032
2.4214e+06,2033
2.4214e+06,2029
2.4214e+06,2039
2.4214e+06,2035
2.4214e+06,2039
2.4214e+06,2034
2.4214e+06,2035
2.4214e+06,2038
2.4214e+06,2039
2.4214e+06,2037
2.4214e+06,2042
2.4214e+06,2033
2.4214e+06,2038
2.4214e+06,2040
2.4214e+06,2043
2.4214e+06,2038
2.4214e+06,2039
2.4214e+06,2040
2.4214e+06,2050
2.4214e+06,2043
2.4214e+06,2044
2.4214e+06,2040
2.4214e+06,2047
2.4214e+06,2049
2.4214e+06,2050
2.4215e+06,2054
2.4215e+06,2052
2.4215e+06,2051
2.4215e+06,2054
2.4215e+06,2059
2.4215e+06,2058
2.4215e+06,2058
2.4215e+06,2058
2.4215e+06,2064
2.4215e+06,2062
2.4215e+06,2064
2.4215e+06,2064
2.4215e+06,2065
2.4215e+06,2071
2.4215e+06,2081
2.4215e+06,2079
2.4215e+06,2081
2.4215e+06,2078
2.4215e+06,2080
2.4215e+06,2085
2.4215e+06,2091
2.4215e+06,2091
2.4215e+06,2096
2.4215e+06,2098
2.4215e+06,2099
2.4215e+06,2107
2.4216e+06,2097
2.4216e+06,2095
2.4216e+06,2102
2.4216e+06,2103
2.4216e+06,2099
2.4216e+06,2099
2.4216e+06,2086
2.4216e+06,2091
2.4216e+06,2080
2.4216e+06,2077
2.4216e+06,2070
2.4216e+06,2066
2.4216e+06,2064
2.4216e+06,2057
2.4216e+06,2052
2.4216e+06,2056
2.4216e+06,2044
2.4216e+06,2041
2.4216e+06,2047
2.4216e+06,2041
2.4216e+06,2038
2.4216e+06,2039
2.4216e+06,2038
2.4216e+06,2049
2.4216e+06,2042
2.4217e+06,2040
2.4217e+06,2040
2.4217e+06,2036
2.4217e+06,2035
2.4217e+06,2042
2.4217e+06,2047
2.4217e+06,2041
2.4217e+06,2038
2.4217e+06,2040
2.4217e+06,2042
2.4217e+06,2041
2.4217e+06,2042
2.4217e+06,2047
2.4217e+06,2047
2.4217e+06,2041
2.4217e+06,2049
2.4217e+06,2045
2.4217e+06,2040
2.4217e+06,2041
2.4217e+06,2052
2.4217e+06,2050
2.4217e+06,2046
2.4217e+06,2045
2.4217e+06,2048
2.4217e+06,2047
2.4217e+06,2053
2.4218e+06,2046
2.4218e+06,2047
2.4218e+06,2049
2.4218e+06,2052
2.4218e+06,2053
2.4218e+06,2046
2.4218e+06,2043
2.4218e+06,2048
2.4218e+06,2053
2.4218e+06,2045
2.4218e+06,2045
2.4218e+06,2047
2.4218e+06,2049
2.4218e+06,2057
2.4218e+06,2063
2.4218e+06,2059
2.4218e+06,2062
2.4218e+06,2063
2.4218e+06,2065
2.4218e+06,2083
2.4218e+06,2085
2.4218e+06,2069
2.4218e+06,2084
2.4218e+06,2085
2.4218e+06,2084
2.4218e+06,2087
2.4219e+06,2088
2.4219e+06,2083
2.4219e+06,2079
2.4219e+06,2072
2.4219e+06,2067
2.4219e+06,2049
2.4219e+06,2053
2.4219e+06,2053
2.4219e+06,2044
2.4219e+06,2052
2.4219e+06,2054
2.4219e+06,2045
2.4219e+06,2049
2.4219e+06,2034
2.4219e+06,2060
2.4219e+06,2048
2.4219e+06,2046
2.4219e+06,2047
2.4219e+06,2054
2.4219e+06,2045
2.4219e+06,2047
2.4219e+06,2039
2.4219e+06,2048
2.4219e+06,2051
2.4219e+06,2047
2.422e+06,2034
2.422e+06,2019
2.422e+06,2022
2.422e+06,2064
2.422e+06,2104
2.422e+06,2183
2.422e+06,2245
2.422e+06,2293
2.422e+06,2319
2.422e+06,2282
2.422e+06,2227
2.422e+06,2167
2.422e+06,2113
2.422e+06,2073
2.422e+06,2048
2.422e+06,2051
2.422e+06,2055
2.422e+06,2050
2.422e+06,2055
2.422e+06,2064
2.422e+06,2064
2.422e+06,2060
2.422e+06,2055
2.422e+06,2058
2.422e+06,2058
2.422e+06,2065
2.4221e+06,2054
2.4221e+06,2051
2.4221e+06,2058
2.4221e+06,2063
2.4221e+06,2064
2.4221e+06,2063
2.4221e+06,2063
2.4221e+06,2059
2.4221e+06,2067
2.4221e+06,2063
2.4221e+06,2070
2.4221e+06,2067
2.4221e+06,2064
2.4221e+06,2072
2.4221e+06,2077
2.4221e+06,2074
2.4221e+06,2069
2.4221e+06,2067
2.4221e+06,2080
2.4221e+06,2079
2.4221e+06,2076
2.4221e+06,2078
2.4221e+06,2078
2.4221e+06,2079
2.4221e+06,2079
2.4222e+06,2081
2.4222e+06,2082
2.4222e+06,2085
2.4222e+06,2092
2.4222e+06,2095
2.4222e+06,2097
2.4222e+06,2095
2.4222e+06,2092
2.4222e+06,2091
2.4222e+06,2102
2.4222e+06,2103
2.4222e+06,2106
2.4222e+06,2102
2.4222e+06,2109
2.4222e+06,2114
2.4222e+06,2112
2.4222e+06,2112
2.4222e+06,2118
2.4222e+06,2119
2.4222e+06,2130
2.4222e+06,2126
2.4222e+06,2123
2.4222e+06,2120
2.4222e+06,2123
2.4222e+06,2121
2.4222e+06,2132
2.4223e+06,2125
2.4223e+06,2123
2.4223e+06,2115
2.4223e+06,2111
2.4223e+06,2110
2.4223e+06,2105
2.4223e+06,2100
2.4223e+06,2093
2.4223e+06,2089
2.4223e+06,2089
2.4223e+06,2083
2.4223e+06,2081
2.4223e+06,2070
2.4223e+06,2072
2.4223e+06,2075
2.4223e+06,2077
2.4223e+06,2068
2.4223e+06,2068
2.4223e+06,2070
2.4223e+06,2073
2.4223e+06,2071
2.4223e+06,2064
2.4223e+06,2070
2.4223e+06,2067
2.4223e+06,2076
2.4223e+06,2075
2.4224e+06,2070
2.4224e+06,2064
2.4224e+06,2071
2.4224e+06,2072
2.4224e+06,2070
2.4224e+06,2073
2.4224e+06,2070
2.4224e+06,2074
2.4224e+06,2074
2.4224e+06,2075
2.4224e+06,2071
2.4224e+06,2072
2.4224e+06,2075
2.4224e+06,2077
2.4224e+06,2078
2.4224e+06,2077
2.4224e+06,2078
2.4224e+06,2079
2.4224e+06,2076
2.4224e+06,2078
2.4224e+06,2074
2.4224e+06,2074
2.4224e+06,2073
2.4224e+06,2077
2.4224e+06,2077
2.4225e+06,2080
2.4225e+06,2078
2.4225e+06,2073
2.4225e+06,2076
2.4225e+06,2075
2.4225e+06,2078
2.4225e+06,2067
2.4225e+06,2071
2.4225e+06,2076
2.4225e+06,2081
2.4225e+06,2073
2.4225e+06,2073
2.4225e+06,2071
2.4225e+06,2082
2.4225e+06,2087
2.4225e+06,2081
2.4225e+06,2082
2.4225e+06,2083
2.4225e+06,2085
2.4225e+06,2088
2.4225e+06,2103
2.4225e+06,2108
2.4225e+06,2104
2.4225e+06,2112
2.4225e+06,2113
2.4225e+06,2111
2.4226e+06,2112
2.4226e+06,2103
2.4226e+06,2107
2.4226e+06,2107
2.4226e+06,2095
2.4226e+06,2091
2.4226e+06,2078
2.4226e+06,2069
2.4226e+06,2068
2.4226e+06,2071
2.4226e+06,2071
2.4226e+06,2069
2.4226e+06,2063
2.4226e+06,2064
2.4226e+06,2067
2.4226e+06,2073
2.4226e+06,2063
2.4226e+06,2065
2.4226e+06,2063
2.4226e+06,2066
2.4226e+06,2061
2.4226e+06,2063
2.4226e+06,2064
2.4226e+06,2064
2.4226e+06,2066
2.4227e+06,2062
2.4227e+06,2045
2.4227e+06,2040
2.4227e+06,2048
2.4227e+06,2079
2.4227e+06,2126
2.4227e+06,2189
2.4227e+06,2250
2.4227e+06,2305
2.4227e+06,2346
2.4227e+06,2308
2.4227e+06,2246
2.4227e+06,2178
2.4227e+06,2121
2.4227e+06,2079
2.4227e+06,2059
2.4227e+06,2063
2.4227e+06,2064
2.4227e+06,2068
2.4227e+06,2077
2.4227e+06,2075
2.4227e+06,2074
2.4227e+06,2068
2.4227e+06,2069
2.4227e+06,2070
2.4227e+06,2071
2.4228e+06,2069
2.4228e+06,2064
2.4228e+06,2068
2.4228e+06,2070
2.4228e+06,2071
2.4228e+06,2060
2.4228e+06,2069
2.4228e+06,2069
2.4228e+06,2074
2.4228e+06,2077
2.4228e+06,2074
2.4228e+06,2072
2.4228e+06,2069
2.4228e+06,2075
2.4228e+06,2080
2.4228e+06,2073
2.4228e+06,2072
2.4228e+06,2077
2.4228e+06,2082
2.4228e+06,2082
2.4228e+06,2083
2.4228e+06,2081
2.4228e+06,2079
2.4228e+06,2081
2.4228e+06,2090
2.4228e+06,2088
2.4229e+06,2087
2.4229e+06,2088
2.4229e+06,2088
2.4229e+06,2092
2.4229e+06,2091
2.4229e+06,2094
2.4229e+06,2095
2.4229e+06,2101
2.4229e+06,2108
2.4229e+06,2103
2.4229e+06,2103
2.4229e+06,2102
2.4229e+06,2108
2.4229e+06,2115
2.4229e+06,2121
2.4229e+06,2110
2.4229e+06,2112
2.4229e+06,2120
2.4229e+06,2128
2.4229e+06,2125
2.4229e+06,2127
2.4229e+06,2117
2.4229e+06,2128
2.4229e+06,2134
2.4229e+06,2133
2.423e+06,2131
2.423e+06,2126
2.423e+06,2124
2.423e+06,2119
2.423e+06,2116
2.423e+06,2111
2.423e+06,2110
2.423e+06,2102
2.423e+06,2095
2.423e+06,2094
2.423e+06,2083
2.423e+06,2077
2.423e+06,2075
2.423e+06,2076
2.423e+06,2077
2.423e+06,2075
2.423e+06,2070
2.423e+06,2065
2.423e+06,2069
2.423e+06,2075
2.423e+06,2065
2.423e+06,2065
2.423e+06,2064
2.423e+06,2065
2.423e+06,2070
2.423e+06,2073
2.4231e+06,2064
2.4231e+06,2062
2.4231e+06,2062
2.4231e+06,2072
2.4231e+06,2070
2.4231e+06,2071
2.4231e+06,2067
2.4231e+06,2068
2.4231e+06,2071
2.4231e+06,2070
2.4231e+06,2067
2.4231e+06,2064
2.4231e+06,2081
2.4231e+06,2071
2.4231e+06,2070
2.4231e+06,2076
2.4231e+06,2065
2.4231e+06,2067
2.4231e+06,2064
2.4231e+06,2071
2.4231e+06,2076
2.4231e+06,2067
2.4231e+06,2070
2.4231e+06,2076
2.4231e+06,2077
2.4232e+06,2072
2.4232e+06,2063
2.4232e+06,2075
2.4232e+06,2075
2.4232e+06,2072
2.4232e+06,2076
2.4232e+06,2067
2.4232e+06,2065
2.4232e+06,2069
2.4232e+06,2071
2.4232e+06,2070
2.4232e+06,2069
2.4232e+06,2064
2.4232e+06,2073
2.4232e+06,2073
2.4232e+06,2070
2.4232e+06,2065
2.4232e+06,2064
2.4232e+06,2068
2.4232e+06,2071
2.4232e+06,2067
2.4232e+06,2069
2.4232e+06,2073
2.4232e+06,2077
2.4232e+06,2077
2.4232e+06,2082
2.4233e+06,2088
2.4233e+06,2081
2.4233e+06,2080
2.4233e+06,2097
2.4233e+06,2108
2.4233e+06,2101
2.4233e+06,2099
2.4233e+06,2097
2.4233e+06,2105
2.4233e+06,2105
2.4233e+06,2105
2.4233e+06,2099
2.4233e+06,2092
2.4233e+06,2086
2.4233e+06,2078
2.4233e+06,2065
2.4233e+06,2066
2.4233e+06,2060
2.4233e+06,2062
2.4233e+06,2064
2.4233e+06,2062
2.4233e+06,2057
2.4233e+06,2059
2.4233e+06,2057
2.4233e+06,2060
2.4233e+06,2062
2.4234e+06,2056
2.4234e+06,2055
2.4234e+06,2056
2.4234e+06,2060
2.4234e+06,2054
2.4234e+06,2047
2.4234e+06,2052
2.4234e+06,2058
2.4234e+06,2048
2.4234e+06,2035
2.4234e+06,2027
2.4234e+06,2040
2.4234e+06,2077
2.4234e+06,2126
2.4234e+06,2203
2.4234e+06,2265
2.4234e+06,2295
2.4234e+06,2323
2.4234e+06,2292
2.4234e+06,2220
2.4234e+06,2158
2.4234e+06,2090
2.4234e+06,2066
2.4234e+06,2058
2.4234e+06,2063
2.4235e+06,2063
2.4235e+06,2062
2.4235e+06,2062
2.4235e+06,2061
2.4235e+06,2059
2.4235e+06,2060
2.4235e+06,2055
2.4235e+06,2058
2.4235e+06,2058
2.4235e+06,2065
2.4235e+06,2059
2.4235e+06,2056
2.4235e+06,2054
2.4235e+06,2057
2.4235e+06,2067
2.4235e+06,2054
2.4235e+06,2065
2.4235e+06,2056
2.4235e+06,2060
2.4235e+06,2067
2.4235e+06,2065
2.4235e+06,2064
2.4235e+06,2061
2.4235e+06,2055
2.4235e+06,2070
2.4235e+06,2064
2.4236e+06,2066
2.4236e+06,2063
2.4236e+06,2063
2.4236e+06,2072
2.4236e+06,2072
2.4236e+06,2071
2.4236e+06,2070
2.4236e+06,2072
2.4236e+06,2077
2.4236e+06,2075
2.4236e+06,2076
2.4236e+06,2074
2.4236e+06,2078
2.4236e+06,2079
2.4236e+06,2089
2.4236e+06,2090
2.4236e+06,2082
2.4236e+06,2085
2.4236e+06,2094
2.4236e+06,2102
2.4236e+06,2095
2.4236e+06,2099
2.4236e+06,2101
2.4236e+06,2111
2.4236e+06,2108
2.4237e+06,2112
2.4237e+06,2110
2.4237e+06,2111
2.4237e+06,2117
2.4237e+06,2122
2.4237e+06,2119
2.4237e+06,2120
2.4237e+06,2120
2.4237e+06,2121
2.4237e+06,2116
2.4237e+06,2115
2.4237e+06,2114
2.4237e+06,2111
2.4237e+06,2104
2.4237e+06,2103
2.4237e+06,2091
2.4237e+06,2082
2.4237e+06,2073
2.4237e+06,2075
2.4237e+06,2074
2.4237e+06,2067
2.4237e+06,2066
2.4237e+06,2062
2.4237e+06,2057
2.4237e+06,2056
2.4237e+06,2058
2.4238e+06,2055
2.4238e+06,2053
2.4238e+06,2053
2.4238e+06,2057
2.4238e+06,2058
2.4238e+06,2056
2.4238e+06,2043
2.4238e+06,2045
2.4238e+06,2056
2.4238e+06,2051
2.4238e+06,2052
2.4238e+06,2046
2.4238e+06,2053
2.4238e+06,2044
2.4238e+06,2057
2.4238e+06,2055
2.4238e+06,2049
2.4238e+06,2048
2.4238e+06,2059
2.4238e+06,2057
2.4238e+06,2056
2.4238e+06,2052
2.4238e+06,2051
2.4238e+06,2056
2.4238e+06,2057
2.4238e+06,2058
2.4239e+06,2049
2.4239e+06,2052
2.4239e+06,2054
2.4239e+06,2057
2.4239e+06,2056
2.4239e+06,2053
2.4239e+06,2052
2.4239e+06,2057
2.4239e+06,2058
2.4239e+06,2049
2.4239e+06,2055
2.4239e+06,2054
2.4239e+06,2046
2.4239e+06,2050
2.4239e+06,2059
2.4239e+06,2054
2.4239e+06,2043
2.4239e+06,2054
2.4239e+06,2053
2.4239e+06,2052
2.4239e+06,2049
2.4239e+06,2047
2.4239e+06,2056
2.4239e+06,2048
2.4239e+06,2051
2.424e+06,2052
2.424e+06,2051
2.424e+06,2051
2.424e+06,2051
2.424e+06,2053
2.424e+06,2051
2.424e+06,2050
2.424e+06,2048
2.424e+06,2051
2.424e+06,2051
2.424e+06,2047
2.424e+06,2041
2.424e+06,2043
2.424e+06,2052
2.424e+06,2051
2.424e+06,2050
2.424e+06,2046
2.424e+06,2046
2.424e+06,2051
2.424e+06,2057
2.424e+06,2059
2.424e+06,2053
2.424e+06,2052
2.424e+06,2061
2.424e+06,2062
2.424e+06,2065
2.4241e+06,2072
2.4241e+06,2076
2.4241e+06,2074
2.4241e+06,2081
2.4241e+06,2086
2.4241e+06,2075
2.4241e+06,2081
2.4241e+06,2083
2.4241e+06,2079
2.4241e+06,2072
2.4241e+06,2065
2.4241e+06,2054
2.4241e+06,2052
2.4241e+06,2047
2.4241e+06,2047
2.4241e+06,2041
2.4241e+06,2042
2.4241e+06,2038
2.4241e+06,2039
2.4241e+06,2042
2.4241e+06,2036
2.4241e+06,2034
2.4241e+06,2038
2.4241e+06,2037
2.4241e+06,2039
2.4242e+06,2037
2.4242e+06,2038
2.4242e+06,2033
2.4242e+06,2039
2.4242e+06,2038
2.4242e+06,2034
2.4242e+06,2019
2.4242e+06,2011
2.4242e+06,2009
2.4242e+06,2023
2.4242e+06,2069
2.4242e+06,2132
2.4242e+06,2201
2.4242e+06,2257
2.4242e+06,2301
2.4242e+06,2300
2.4242e+06,2249
2.4242e+06,2181
2.4242e+06,2125
2.4242e+06,2075
2.4242e+06,2043
2.4242e+06,2044
2.4242e+06,2041
2.4242e+06,2041
2.4242e+06,2045
2.4242e+06,2046
2.4243e+06,2037
2.4243e+06,2043
2.4243e+06,2043
2.4243e+06,2041
2.4243e+06,2043
2.4243e+06,2040
2.4243e+06,2037
2.4243e+06,2037
2.4243e+06,2039
2.4243e+06,2040
2.4243e+06,2043
2.4243e+06,2041
2.4243e+06,2038
2.4243e+06,2041
2.4243e+06,2036
2.4243e+06,2039
2.4243e+06,2044
2.4243e+06,2040
2.4243e+06,2042
2.4243e+06,2050
2.4243e+06,2043
2.4243e+06,2042
2.4243e+06,2042
2.4243e+06,2042
2.4243e+06,2047
2.4243e+06,2048
2.4244e+06,2044
2.4244e+06,2048
2.4244e+06,2051
2.4244e+06,2052
2.4244e+06,2052
2.4244e+06,2048
2.4244e+06,2048
2.4244e+06,2056
2.4244e+06,2059
2.4244e+06,2058
2.4244e+06,2058
2.4244e+06,2058
2.4244e+06,2058
2.4244e+06,2063
2.4244e+06,2069
2.4244e+06,2067
2.4244e+06,2067
2.4244e+06,2073
2.4244e+06,2076
2.4244e+06,2075
2.4244e+06,2084
2.4244e+06,2079
2.4244e+06,2086
2.4244e+06,2087
2.4244e+06,2090
2.4245e+06,2094
2.4245e+06,2095
2.4245e+06,2092
2.4245e+06,2095
2.4245e+06,2095
2.4245e+06,2096
2.4245e+06,2093
2.4245e+06,2093
2.4245e+06,2093
2.4245e+06,2092
2.4245e+06,2081
2.4245e+06,2070
2.4245e+06,2069
2.4245e+06,2060
2.4245e+06,2061
2.4245e+06,2053
2.4245e+06,2044
2.4245e+06,2040
2.4245e+06,2040
2.4245e+06,2040
2.4245e+06,2036
2.4245e+06,2037
2.4245e+06,2027
2.4245e+06,2032
2.4245e+06,2034
2.4245e+06,2034
2.4246e+06,2030
2.4246e+06,2026
2.4246e+06,2027
2.4246e+06,2029
2.4246e+06,2034
2.4246e+06,2034
2.4246e+06,2028
2.4246e+06,2029
2.4246e+06,2033
2.4246e+06,2029
2.4246e+06,2030
2.4246e+06,2028
2.4246e+06,2030
2.4246e+06,2031
2.4246e+06,2036
2.4246e+06,2032
2.4246e+06,2026
2.4246e+06,2031
2.4246e+06,2036
2.4246e+06,2034
2.4246e+06,2031
2.4246e+06,2032
2.4246e+06,2027
2.4246e+06,2032
2.4246e+06,2038
2.4247e+06,2034
2.4247e+06,2023
2.4247e+06,2028
2.4247e+06,2028
2.4247e+06,2035
2.4247e+06,2037
2.4247e+06,2026
2.4247e+06,2031
2.4247e+06,2036
2.4247e+06,2029
2.4247e+06,2033
2.4247e+06,2027
2.4247e+06,2030
2.4247e+06,2030
2.4247e+06,2028
2.4247e+06,2040
2.4247e+06,2021
2.4247e+06,2028
2.4247e+06,2033
2.4247e+06,2036
2.4247e+06,2026
2.4247e+06,2032
2.4247e+06,2022
2.4247e+06,2030
2.4247e+06,2031
2.4247e+06,2031
2.4248e+06,2030
2.4248e+06,2027
2.4248e+06,2025
2.4248e+06,2029
2.4248e+06,2030
2.4248e+06,2029
2.4248e+06,2019
2.4248e+06,2022
2.4248e+06,2035
2.4248e+06,2031
2.4248e+06,2032
2.4248e+06,2026
2.4248e+06,2023
2.4248e+06,2029
2.4248e+06,2025
2.4248e+06,2018
2.4248e+06,2024
2.4248e+06,2021
2.4248e+06,2028
2.4248e+06,2028
2.4248e+06,2025
2.4248e+06,2023
2.4248e+06,2023
2.4248e+06,2019
2.4248e+06,2030
2.4248e+06,2022
2.4249e+06,2032
2.4249e+06,2033
2.4249e+06,2038
2.4249e+06,2040
2.4249e+06,2036
2.4249e+06,2036
2.4249e+06,2041
2.4249e+06,2056
2.4249e+06,2056
2.4249e+06,2065
2.4249e+06,2054
2.4249e+06,2055
2.4249e+06,2060
2.4249e+06,2055
2.4249e+06,2063
2.4249e+06,2055
2.4249e+06,2048
2.4249e+06,2042
2.4249e+06,2039
2.4249e+06,2031
2.4249e+06,2023
2.4249e+06,2018
2.4249e+06,2021
2.4249e+06,2026
2.4249e+06,2020
2.425e+06,2021
2.425e+06,2019
2.425e+06,2015
2.425e+06,2017
2.425e+06,2018
2.425e+06,2017
2.425e+06,2015
2.425e+06,2012
2.425e+06,2020
2.425e+06,2020
2.425e+06,2021
2.425e+06,2011
2.425e+06,2014
2.425e+06,2001
2.425e+06,1996
2.425e+06,1995
2.425e+06,2015
2.425e+06,2058
2.425e+06,2124
2.425e+06,2187
2.425e+06,2242
2.425e+06,2273
2.425e+06,2274
2.425e+06,2215
2.425e+06,2162
2.425e+06,2097
2.4251e+06,2038
2.4251e+06,2011
2.4251e+06,2017
2.4251e+06,2026
2.4251e+06,2026
2.4251e+06,2022
2.4251e+06,2030
2.4251e+06,2022
2.4251e+06,2028
2.4251e+06,2018
2.4251e+06,2019
2.4251e+06,2019
2.4251e+06,2020
2.4251e+06,2022
2.4251e+06,2024
2.4251e+06,2024
2.4251e+06,2024
2.4251e+06,2016
2.4251e+06,2022
2.4251e+06,2023
2.4251e+06,2020
2.4251e+06,2027
2.4251e+06,2026
2.4251e+06,2026
2.4251e+06,2030
2.4252e+06,2026
2.4252e+06,2022
2.4252e+06,2027
2.4252e+06,2030
2.4252e+06,2031
2.4252e+06,2034
2.4252e+06,2030
2.4252e+06,2030
2.4252e+06,2033
2.4252e+06,2035
2.4252e+06,2048
2.4252e+06,2033
2.4252e+06,2036
2.4252e+06,2040
2.4252e+06,2037
2.4252e+06,2047
2.4252e+06,2044
2.4252e+06,2040
2.4252e+06,2051
2.4252e+06,2054
2.4252e+06,2054
2.4252e+06,2051
2.4252e+06,2059
2.4252e+06,2052
2.4252e+06,2063
2.4252e+06,2063
2.4253e+06,2066
2.4253e+06,2067
2.4253e+06,2070
2.4253e+06,2080
2.4253e+06,2070
2.4253e+06,2082
2.4253e+06,2078
2.4253e+06,2078
2.4253e+06,2090
2.4253e+06,2089
2.4253e+06,2092
2.4253e+06,2085
2.4253e+06,2081
2.4253e+06,2087
2.4253e+06,2084
2.4253e+06,2087
2.4253e+06,2079
2.4253e+06,2068
2.4253e+06,2071
2.4253e+06,2060
2.4253e+06,2054
2.4253e+06,2052
2.4253e+06,2034
2.4253e+06,2041
2.4253e+06,2044
2.4253e+06,2035
2.4254e+06,2027
2.4254e+06,2029
2.4254e+06,2023
2.4254e+06,2026
2.4254e+06,2026
2.4254e+06,2021
2.4254e+06,2020
2.4254e+06,2024
2.4254e+06,2023
2.4254e+06,2026
2.4254e+06,2022
2.4254e+06,2016
2.4254e+06,2019
2.4254e+06,2017
2.4254e+06,2024
2.4254e+06,2025
2.4254e+06,2021
2.4254e+06,2026
2.4254e+06,2028
2.4254e+06,2027
2.4254e+06,2022
2.4254e+06,2018
2.4254e+06,2026
2.4254e+06,2029
2.4254e+06,2023
2.4255e+06,2028
2.4255e+06,2022
2.4255e+06,2025
2.4255e+06,2025
2.4255e+06,2028
2.4255e+06,2027
2.4255e+06,2024
2.4255e+06,2026
2.4255e+06,2029
2.4255e+06,2021
2.4255e+06,2033
2.4255e+06,2027
2.4255e+06,2023
2.4255e+06,2027
2.4255e+06,2028
2.4255e+06,2017
2.4255e+06,2023
2.4255e+06,2023
2.4255e+06,2030
2.4255e+06,2027
2.4255e+06,2023
2.4255e+06,2026
2.4255e+06,2024
2.4255e+06,2023
2.4255e+06,2027
2.4255e+06,2027
2.4256e+06,2019
2.4256e+06,2023
2.4256e+06,2020
2.4256e+06,2024
2.4256e+06,2027
2.4256e+06,2021
2.4256e+06,2020
2.4256e+06,2022
2.4256e+06,2023
2.4256e+06,2022
2.4256e+06,2016
2.4256e+06,2017
2.4256e+06,2021
2.4256e+06,2023
2.4256e+06,2023
2.4256e+06,2025
2.4256e+06,2017
2.4256e+06,2015
2.4256e+06,2021
2.4256e+06,2020
2.4256e+06,2023
2.4256e+06,2016
2.4256e+06,2019
2.4256e+06,2021
2.4256e+06,2025
2.4257e+06,2018
2.4257e+06,2028
2.4257e+06,2026
2.4257e+06,2033
2.4257e+06,2027
2.4257e+06,2031
2.4257e+06,2033
2.4257e+06,2031
2.4257e+06,2043
2.4257e+06,2050
2.4257e+06,2061
2.4257e+06,2055
2.4257e+06,2049
2.4257e+06,2057
2.4257e+06,2059
2.4257e+06,2057
2.4257e+06,2043
2.4257e+06,2041
2.4257e+06,2041
2.4257e+06,2033
2.4257e+06,2026
2.4257e+06,2017
2.4257e+06,2019
2.4257e+06,2016
2.4257e+06,2022
2.4257e+06,2021
2.4258e+06,2017
2.4258e+06,2010
2.4258e+06,2014
2.4258e+06,2016
2.4258e+06,2021
2.4258e+06,2015
2.4258e+06,2015
2.4258e+06,2012
2.4258e+06,2011
2.4258e+06,2018
2.4258e+06,2016
2.4258e+06,2017
2.4258e+06,2009
2.4258e+06,2004
2.4258e+06,1995
2.4258e+06,1992
2.4258e+06,2010
2.4258e+06,2057
2.4258e+06,2128
2.4258e+06,2203
2.4258e+06,2249
2.4258e+06,2284
2.4258e+06,2261
2.4258e+06,2206
2.4258e+06,2150
2.4258e+06,2089
2.4259e+06,2043
2.4259e+06,2011
2.4259e+06,2016
2.4259e+06,2012
2.4259e+06,2011
2.4259e+06,2017
2.4259e+06,2017
2.4259e+06,2014
2.4259e+06,2026
2.4259e+06,2020
2.4259e+06,2018
2.4259e+06,2017
2.4259e+06,2021
2.4259e+06,2020
2.4259e+06,2017
2.4259e+06,2019
2.4259e+06,2019
2.4259e+06,2022
2.4259e+06,2022
2.4259e+06,2033
2.4259e+06,2023
2.4259e+06,2020
2.4259e+06,2021
2.4259e+06,2027
2.4259e+06,2027
2.426e+06,2020
2.426e+06,2026
2.426e+06,2025
2.426e+06,2030
2.426e+06,2031
2.426e+06,2029
2.426e+06,2030
2.426e+06,2022
2.426e+06,2033
2.426e+06,2038
2.426e+06,2035
2.426e+06,2032
2.426e+06,2026
2.426e+06,2042
2.426e+06,2046
2.426e+06,2040
2.426e+06,2040
2.426e+06,2042
2.426e+06,2044
2.426e+06,2051
2.426e+06,2051
2.426e+06,2049
2.426e+06,2049
2.426e+06,2052
2.426e+06,2058
2.426e+06,2067
2.4261e+06,2060
2.4261e+06,2059
2.4261e+06,2066
2.4261e+06,2071
2.4261e+06,2076
2.4261e+06,2073
2.4261e+06,2071
2.4261e+06,2079
2.4261e+06,2083
2.4261e+06,2087
2.4261e+06,2082
2.4261e+06,2084
2.4261e+06,2084
2.4261e+06,2084
2.4261e+06,2082
2.4261e+06,2086
2.4261e+06,2074
2.4261e+06,2071
2.4261e+06,2065
2.4261e+06,2060
2.4261e+06,2056
2.4261e+06,2043
2.4261e+06,2037
2.4261e+06,2045
2.4261e+06,2042
2.4262e+06,2030
2.4262e+06,2028
2.4262e+06,2028
2.4262e+06,2022
2.4262e+06,2024
2.4262e+06,2028
2.4262e+06,2020
2.4262e+06,2020
2.4262e+06,2019
2.4262e+06,2017
2.4262e+06,2020
2.4262e+06,2020
2.4262e+06,2016
2.4262e+06,2019
2.4262e+06,2023
2.4262e+06,2024
2.4262e+06,2006
2.4262e+06,2021
2.4262e+06,2016
2.4262e+06,2025
2.4262e+06,2020
2.4262e+06,2022
2.4262e+06,2017
2.4262e+06,2019
2.4262e+06,2025
2.4262e+06,2018
2.4263e+06,2022
2.4263e+06,2020
2.4263e+06,2024
2.4263e+06,2024
2.4263e+06,2025
2.4263e+06,2020
2.4263e+06,2018
2.4263e+06,2021
2.4263e+06,2025
2.4263e+06,2033
2.4263e+06,2023
2.4263e+06,2024
2.4263e+06,2018
2.4263e+06,2020
2.4263e+06,2027
2.4263e+06,2028
2.4263e+06,2022
2.4263e+06,2022
2.4263e+06,2025
2.4263e+06,2030
2.4263e+06,2024
2.4263e+06,2019
2.4263e+06,2019
2.4263e+06,2011
2.4263e+06,2026
2.4263e+06,2026
2.4264e+06,2022
2.4264e+06,2020
2.4264e+06,2015
2.4264e+06,2026
2.4264e+06,2024
2.4264e+06,2017
2.4264e+06,2020
2.4264e+06,2021
2.4264e+06,2025
2.4264e+06,2016
2.4264e+06,2019
2.4264e+06,2018
2.4264e+06,2013
2.4264e+06,2018
2.4264e+06,2024
2.4264e+06,2015
2.4264e+06,2017
2.4264e+06,2016
2.4264e+06,2019
2.4264e+06,2028
2.4264e+06,2025
2.4264e+06,2031
2.4264e+06,2029
2.4264e+06,2033
2.4264e+06,2031
2.4265e+06,2028
2.4265e+06,2036
2.4265e+06,2049
2.4265e+06,2048
2.4265e+06,2050
2.4265e+06,2054
2.4265e+06,2056
2.4265e+06,2049
2.4265e+06,2060
2.4265e+06,2053
2.4265e+06,2051
2.4265e+06,2047
2.4265e+06,2032
2.4265e+06,2032
2.4265e+06,2028
2.4265e+06,2024
2.4265e+06,2017
2.4265e+06,2017
2.4265e+06,2016
2.4265e+06,2019
2.4265e+06,2015
2.4265e+06,2011
2.4265e+06,2012
2.4265e+06,2011
2.4265e+06,2018
2.4265e+06,2017
2.4266e+06,2013
2.4266e+06,2006
2.4266e+06,2011
2.4266e+06,2020
2.4266e+06,2018
2.4266e+06,2013
2.4266e+06,2013
2.4266e+06,2007
2.4266e+06,1993
2.4266e+06,1981
2.4266e+06,2005
2.4266e+06,2049
2.4266e+06,2103
2.4266e+06,2179
2.4266e+06,2247
2.4266e+06,2276
2.4266e+06,2277
2.4266e+06,2228
2.4266e+06,2170
2.4266e+06,2104
2.4266e+06,2052
2.4266e+06,2020
2.4266e+06,2010
2.4266e+06,2016
2.4266e+06,2024
2.4267e+06,2026
2.4267e+06,2021
2.4267e+06,2026
2.4267e+06,2024
2.4267e+06,2011
2.4267e+06,2022
2.4267e+06,2010
2.4267e+06,2027
2.4267e+06,2023
2.4267e+06,2021
2.4267e+06,2021
2.4267e+06,2017
2.4267e+06,2012
2.4267e+06,2023
2.4267e+06,2023
2.4267e+06,2024
2.4267e+06,2019
2.4267e+06,2022
2.4267e+06,2023
2.4267e+06,2025
2.4267e+06,2026
2.4267e+06,2027
2.4267e+06,2018
2.4267e+06,2030
2.4267e+06,2031
2.4267e+06,2030
2.4268e+06,2028
2.4268e+06,2024
2.4268e+06,2028
2.4268e+06,2030
2.4268e+06,2035
2.4268e+06,2034
2.4268e+06,2029
2.4268e+06,2040
2.4268e+06,2040
2.4268e+06,2040
2.4268e+06,2039
2.4268e+06,2045
2.4268e+06,2045
2.4268e+06,2051
2.4268e+06,2045
2.4268e+06,2049
2.4268e+06,2049
2.4268e+06,2048
2.4268e+06,2054
2.4268e+06,2065
2.4268e+06,2064
2.4268e+06,2069
2.4268e+06,2059
2.4268e+06,2071
2.4268e+06,2075
2.4268e+06,2079
2.4269e+06,2074
2.4269e+06,2076
2.4269e+06,2082
2.4269e+06,2082
2.4269e+06,2087
2.4269e+06,2083
2.4269e+06,2084
2.4269e+06,2088
2.4269e+06,2084
2.4269e+06,2082
2.4269e+06,2076
2.4269e+06,2071
2.4269e+06,2065
2.4269e+06,2052
2.4269e+06,2055
2.4269e+06,2050
2.4269e+06,2042
2.4269e+06,2043
2.4269e+06,2033
2.4269e+06,2032
2.4269e+06,2023
2.4269e+06,2021
2.4269e+06,2022
2.4269e+06,2028
2.4269e+06,2026
2.427e+06,2020
2.427e+06,2020
2.427e+06,2020
2.427e+06,2019
2.427e+06,2019
2.427e+06,2020
2.427e+06,2018
2.427e+06,2017
2.427e+06,2018
2.427e+06,2019
2.427e+06,2018
2.427e+06,2015
2.427e+06,2014
2.427e+06,2014
2.427e+06,2019
2.427e+06,2024
2.427e+06,2018
2.427e+06,2012
2.427e+06,2018
2.427e+06,2016
2.427e+06,2016
2.427e+06,2020
2.427e+06,2020
2.427e+06,2021
2.427e+06,2028
2.427e+06,2023
2.4271e+06,2019
2.4271e+06,2017
2.4271e+06,2021
2.4271e+06,2019
2.4271e+06,2020
2.4271e+06,2023
2.4271e+06,2016
2.4271e+06,2019
2.4271e+06,2017
2.4271e+06,2024
2.4271e+06,2019
2.4271e+06,2018
2.4271e+06,2016
2.4271e+06,2026
2.4271e+06,2024
2.4271e+06,2008
2.4271e+06,2023
2.4271e+06,2017
2.4271e+06,2019
2.4271e+06,2019
2.4271e+06,2012
2.4271e+06,2018
2.4271e+06,2012
2.4271e+06,2018
2.4271e+06,2019
2.4272e+06,2017
2.4272e+06,2016
2.4272e+06,2014
2.4272e+06,2013
2.4272e+06,2021
2.4272e+06,2013
2.4272e+06,2012
2.4272e+06,2017
2.4272e+06,2008
2.4272e+06,2021
2.4272e+06,2015
2.4272e+06,2015
2.4272e+06,2011
2.4272e+06,2016
2.4272e+06,2016
2.4272e+06,2018
2.4272e+06,2012
2.4272e+06,2002
2.4272e+06,2013
2.4272e+06,2020
2.4272e+06,2011
2.4272e+06,2017
2.4272e+06,2011
2.4272e+06,2013
2.4272e+06,2019
2.4272e+06,2020
2.4273e+06,2025
2.4273e+06,2026
2.4273e+06,2026
2.4273e+06,2021
2.4273e+06,2030
2.4273e+06,2037
2.4273e+06,2040
2.4273e+06,2046
2.4273e+06,2048
2.4273e+06,2046
2.4273e+06,2047
2.4273e+06,2048
2.4273e+06,2047
2.4273e+06,2042
2.4273e+06,2042
2.4273e+06,2037
2.4273e+06,2026
2.4273e+06,2021
2.4273e+06,2020
2.4273e+06,2015
2.4273e+06,2019
2.4273e+06,2010
2.4273e+06,2006
2.4273e+06,2006
2.4273e+06,2011
2.4273e+06,2011
2.4274e+06,1999
2.4274e+06,2005
2.4274e+06,2004
2.4274e+06,2010
2.4274e+06,2008
2.4274e+06,2007
2.4274e+06,2007
2.4274e+06,2008
2.4274e+06,2009
2.4274e+06,2010
2.4274e+06,2004
2.4274e+06,1996
2.4274e+06,1977
2.4274e+06,1987
2.4274e+06,2010
2.4274e+06,2063
2.4274e+06,2123
2.4274e+06,2192
2.4274e+06,2239
2.4274e+06,2282
2.4274e+06,2258
2.4274e+06,2197
2.4274e+06,2134
2.4274e+06,2079
2.4274e+06,2027
2.4275e+06,2008
2.4275e+06,2012
2.4275e+06,2011
2.4275e+06,2016
2.4275e+06,2019
2.4275e+06,2010
2.4275e+06,2014
2.4275e+06,2013
2.4275e+06,2004
2.4275e+06,2017
2.4275e+06,2011
2.4275e+06,2004
2.4275e+06,2009
2.4275e+06,2012
2.4275e+06,2014
2.4275e+06,2011
2.4275e+06,2008
2.4275e+06,2011
2.4275e+06,2015
2.4275e+06,2010
2.4275e+06,2011
2.4275e+06,2016
2.4275e+06,2006
2.4275e+06,2016
2.4275e+06,2018
2.4275e+06,2022
2.4276e+06,2016
2.4276e+06,2018
2.4276e+06,2007
2.4276e+06,2020
2.4276e+06,2021
2.4276e+06,2021
2.4276e+06,2019
2.4276e+06,2019
2.4276e+06,2031
2.4276e+06,2024
2.4276e+06,2025
2.4276e+06,2025
2.4276e+06,2026
2.4276e+06,2032
2.4276e+06,2035
2.4276e+06,2025
2.4276e+06,2036
2.4276e+06,2035
2.4276e+06,2043
2.4276e+06,2042
2.4276e+06,2044
2.4276e+06,2040
2.4276e+06,2045
2.4276e+06,2053
2.4276e+06,2059
2.4277e+06,2058
2.4277e+06,2056
2.4277e+06,2055
2.4277e+06,2066
2.4277e+06,2070
2.4277e+06,2075
2.4277e+06,2067
2.4277e+06,2077
2.4277e+06,2075
2.4277e+06,2075
2.4277e+06,2080
2.4277e+06,2079
2.4277e+06,2072
2.4277e+06,2079
2.4277e+06,2068
2.4277e+06,2074
2.4277e+06,2060
2.4277e+06,2052
2.4277e+06,2053
2.4277e+06,2048
2.4277e+06,2040
2.4277e+06,2031
2.4277e+06,2027
2.4277e+06,2017
2.4277e+06,2020
2.4277e+06,2012
2.4278e+06,2019
2.4278e+06,2009
2.4278e+06,2011
2.4278e+06,2003
2.4278e+06,2011
2.4278e+06,2013
2.4278e+06,2001
2.4278e+06,2010
2.4278e+06,2011
2.4278e+06,2011
2.4278e+06,2007
2.4278e+06,2007
2.4278e+06,2006
2.4278e+06,2005
2.4278e+06,2007
2.4278e+06,2004
2.4278e+06,2005
2.4278e+06,2008
2.4278e+06,2008
2.4278e+06,2009
2.4278e+06,2010
2.4278e+06,2007
2.4278e+06,2006
2.4278e+06,2005
2.4278e+06,2015
2.4278e+06,2012
2.4279e+06,2003
2.4279e+06,2007
2.4279e+06,2010
2.4279e+06,2013
2.4279e+06,2010
2.4279e+06,2009
2.4279e+06,2007
2.4279e+06,2007
2.4279e+06,2007
2.4279e+06,2007
2.4279e+06,2010
2.4279e+06,2000
2.4279e+06,2008
2.4279e+06,2005
2.4279e+06,2006
2.4279e+06,2010
2.4279e+06,2005
2.4279e+06,2004
2.4279e+06,2013
2.4279e+06,2016
2.4279e+06,2000
2.4279e+06,1999
2.4279e+06,2001
2.4279e+06,2013
2.4279e+06,2002
2.428e+06,2009
2.428e+06,2004
2.428e+06,2004
2.428e+06,2009
2.428e+06,2008
2.428e+06,2009
2.428e+06,2002
2.428e+06,1997
2.428e+06,2003
2.428e+06,2006
2.428e+06,2004
2.428e+06,2002
2.428e+06,2000
2.428e+06,2001
2.428e+06,2011
2.428e+06,2002
2.428e+06,2003
2.428e+06,2005
2.428e+06,2002
2.428e+06,2005
2.428e+06,2003
2.428e+06,1999
2.428e+06,2004
2.428e+06,2000
2.428e+06,2007
2.428e+06,2007
2.4281e+06,2001
2.4281e+06,1995
2.4281e+06,2003
2.4281e+06,2002
2.4281e+06,2006
2.4281e+06,2005
2.4281e+06,2009
2.4281e+06,2015
2.4281e+06,2017
2.4281e+06,2014
2.4281e+06,2014
2.4281e+06,2013
2.4281e+06,2016
2.4281e+06,2025
2.4281e+06,2029
2.4281e+06,2027
2.4281e+06,2035
2.4281e+06,2039
2.4281e+06,2029
2.4281e+06,2029
2.4281e+06,2042
2.4281e+06,2029
2.4281e+06,2027
2.4281e+06,2017
2.4281e+06,2027
2.4282e+06,2008
2.4282e+06,2000
2.4282e+06,2003
2.4282e+06,2004
2.4282e+06,2002
2.4282e+06,2004
2.4282e+06,1995
2.4282e+06,1996
2.4282e+06,2001
2.4282e+06,1998
2.4282e+06,2002
2.4282e+06,1998
2.4282e+06,1990
2.4282e+06,1996
2.4282e+06,2000
2.4282e+06,2001
2.4282e+06,2000
2.4282e+06,1993
2.4282e+06,1997
2.4282e+06,1988
2.4282e+06,1984
2.4282e+06,1973
2.4282e+06,1980
2.4282e+06,2002
2.4282e+06,2047
2.4282e+06,2118
2.4283e+06,2173
2.4283e+06,2227
2.4283e+06,2271
2.4283e+06,2256
2.4283e+06,2196
2.4283e+06,2131
2.4283e+06,2067
2.4283e+06,2016
2.4283e+06,2001
2.4283e+06,1998
2.4283e+06,2005
2.4283e+06,2003
2.4283e+06,2008
2.4283e+06,2013
2.4283e+06,2008
2.4283e+06,2004
2.4283e+06,2004
2.4283e+06,2006
2.4283e+06,2004
2.4283e+06,2005
2.4283e+06,2006
2.4283e+06,2001
2.4283e+06,2008
2.4283e+06,2003
2.4283e+06,2004
2.4283e+06,2007
2.4284e+06,2000
2.4284e+06,2005
2.4284e+06,2009
2.4284e+06,2016
2.4284e+06,2009
2.4284e+06,2011
2.4284e+06,2009
2.4284e+06,2011
2.4284e+06,2014
2.4284e+06,2005
2.4284e+06,2015
2.4284e+06,2012
2.4284e+06,2011
2.4284e+06,2017
2.4284e+06,2019
2.4284e+06,2018
2.4284e+06,2018
2.4284e+06,2019
2.4284e+06,2025
2.4284e+06,2025
2.4284e+06,2027
2.4284e+06,2021
2.4284e+06,2025
2.4284e+06,2029
2.4284e+06,2037
2.4285e+06,2029
2.4285e+06,2025
2.4285e+06,2036
2.4285e+06,2035
2.4285e+06,2043
2.4285e+06,2042
2.4285e+06,2042
2.4285e+06,2045
2.4285e+06,2048
2.4285e+06,2058
2.4285e+06,2058
2.4285e+06,2057
2.4285e+06,2060
2.4285e+06,2059
2.4285e+06,2068
2.4285e+06,2073
2.4285e+06,2072
2.4285e+06,2075
2.4285e+06,2071
2.4285e+06,2075
2.4285e+06,2077
2.4285e+06,2069
2.4285e+06,2066
2.4285e+06,2067
2.4285e+06,2063
2.4285e+06,2056
2.4286e+06,2046
2.4286e+06,2036
2.4286e+06,2037
2.4286e+06,2031
2.4286e+06,2028
2.4286e+06,2023
2.4286e+06,2014
2.4286e+06,2014
2.4286e+06,2019
2.4286e+06,2010
2.4286e+06,2007
2.4286e+06,2003
2.4286e+06,2005
2.4286e+06,2011
2.4286e+06,1998
2.4286e+06,2006
2.4286e+06,2001
2.4286e+06,2001
2.4286e+06,2004
2.4286e+06,2001
2.4286e+06,2006
2.4286e+06,2007
2.4286e+06,2005
2.4286e+06,2008
2.4286e+06,2008
2.4287e+06,2003
2.4287e+06,2004
2.4287e+06,2003
2.4287e+06,2008
2.4287e+06,2004
2.4287e+06,2002
2.4287e+06,2011
2.4287e+06,2009
2.4287e+06,2007
2.4287e+06,2010
2.4287e+06,2005
2.4287e+06,2010
2.4287e+06,2003
2.4287e+06,2008
2.4287e+06,2010
2.4287e+06,2011
2.4287e+06,2001
2.4287e+06,2006
2.4287e+06,2008
2.4287e+06,2012
2.4287e+06,2012
2.4287e+06,2008
2.4287e+06,2009
2.4287e+06,2003
2.4287e+06,2009
2.4287e+06,2010
2.4288e+06,2007
2.4288e+06,2008
2.4288e+06,2008
2.4288e+06,2011
2.4288e+06,2013
2.4288e+06,2007
2.4288e+06,2003
2.4288e+06,1998
2.4288e+06,2006
2.4288e+06,2009
2.4288e+06,2010
2.4288e+06,2004
2.4288e+06,2007
2.4288e+06,2003
2.4288e+06,2008
2.4288e+06,2006
2.4288e+06,2003
2.4288e+06,2000
2.4288e+06,2007
2.4288e+06,2001
2.4288e+06,2008
2.4288e+06,2003
2.4288e+06,2005
2.4288e+06,2004
2.4288e+06,2007
2.4288e+06,2011
2.4289e+06,2009
2.4289e+06,2004
2.4289e+06,2005
2.4289e+06,2011
2.4289e+06,2007
2.4289e+06,2004
2.4289e+06,2003
2.4289e+06,2006
2.4289e+06,2014
2.4289e+06,2008
2.4289e+06,2005
2.4289e+06,2007
2.4289e+06,2011
2.4289e+06,2013
2.4289e+06,2023
2.4289e+06,2021
2.4289e+06,2018
2.4289e+06,2019
2.4289e+06,2023
2.4289e+06,2027
2.4289e+06,2032
2.4289e+06,2035
2.4289e+06,2031
2.4289e+06,2040
2.4289e+06,2047
2.429e+06,2038
2.429e+06,2034
2.429e+06,2041
2.429e+06,2042
2.429e+06,2036
2.429e+06,2025
2.429e+06,2015
2.429e+06,2013
2.429e+06,2012
2.429e+06,2013
2.429e+06,2005
2.429e+06,2006
2.429e+06,2007
2.429e+06,1997
2.429e+06,2010
2.429e+06,2006
2.429e+06,2002
2.429e+06,2004
2.429e+06,2006
2.429e+06,2010
2.429e+06,2009
2.429e+06,2007
2.429e+06,2003
2.429e+06,2013
2.429e+06,2006
2.429e+06,2014
2.4291e+06,1999
2.4291e+06,1984
2.4291e+06,1974
2.4291e+06,1999
2.4291e+06,2036
2.4291e+06,2087
2.4291e+06,2154
2.4291e+06,2216
2.4291e+06,2259
2.4291e+06,2277
2.4291e+06,2229
2.4291e+06,2163
2.4291e+06,2106
2.4291e+06,2055
2.4291e+06,2020
2.4291e+06,2005
2.4291e+06,2010
2.4291e+06,2014
2.4291e+06,2013
2.4291e+06,2021
2.4291e+06,2015
2.4291e+06,2014
2.4291e+06,2013
2.4291e+06,2022
2.4291e+06,2017
2.4292e+06,2013
2.4292e+06,2006
2.4292e+06,2011
2.4292e+06,2012
2.4292e+06,2026
2.4292e+06,2018
2.4292e+06,2015
2.4292e+06,2016
2.4292e+06,2020
2.4292e+06,2017
2.4292e+06,2018
2.4292e+06,2018
2.4292e+06,2018
2.4292e+06,2014
2.4292e+06,2030
2.4292e+06,2023
2.4292e+06,2024
2.4292e+06,2017
2.4292e+06,2019
2.4292e+06,2028
2.4292e+06,2027
2.4292e+06,2026
2.4292e+06,2029
2.4292e+06,2027
2.4292e+06,2032
2.4292e+06,2031
2.4293e+06,2022
2.4293e+06,2033
2.4293e+06,2032
2.4293e+06,2032
2.4293e+06,2040
2.4293e+06,2041
2.4293e+06,2037
2.4293e+06,2040
2.4293e+06,2042
2.4293e+06,2053
2.4293e+06,2048
2.4293e+06,2050
2.4293e+06,2053
2.4293e+06,2056
2.4293e+06,2062
2.4293e+06,2060
2.4293e+06,2060
2.4293e+06,2063
2.4293e+06,2065
2.4293e+06,2079
2.4293e+06,2077
2.4293e+06,2077
2.4293e+06,2078
2.4293e+06,2078
2.4293e+06,2082
2.4293e+06,2080
2.4294e+06,2083
2.4294e+06,2076
2.4294e+06,2084
2.4294e+06,2080
2.4294e+06,2070
2.4294e+06,2065
2.4294e+06,2058
2.4294e+06,2053
2.4294e+06,2046
2.4294e+06,2044
2.4294e+06,2040
2.4294e+06,2029
2.4294e+06,2027
2.4294e+06,2026
2.4294e+06,2021
2.4294e+06,2022
2.4294e+06,2013
2.4294e+06,2007
2.4294e+06,2014
2.4294e+06,2020
2.4294e+06,2017
2.4294e+06,2009
2.4294e+06,2005
2.4294e+06,2014
2.4294e+06,2015
2.4295e+06,2017
2.4295e+06,2014
2.4295e+06,2012
2.4295e+06,2015
2.4295e+06,2019
2.4295e+06,2016
2.4295e+06,2005
2.4295e+06,2010
2.4295e+06,2021
2.4295e+06,2018
2.4295e+06,2015
2.4295e+06,2011
2.4295e+06,2011
2.4295e+06,2011
2.4295e+06,2017
2.4295e+06,2007
2.4295e+06,2010
2.4295e+06,2012
2.4295e+06,2013
2.4295e+06,2022
2.4295e+06,2016
2.4295e+06,2008
2.4295e+06,2013
2.4295e+06,2013
2.4295e+06,2018
2.4295e+06,2021
2.4296e+06,2011
2.4296e+06,2010
2.4296e+06,2015
2.4296e+06,2016
2.4296e+06,2021
2.4296e+06,2013
2.4296e+06,2012
2.4296e+06,2015
2.4296e+06,2019
2.4296e+06,2016
2.4296e+06,2010
2.4296e+06,2006
2.4296e+06,2011
2.4296e+06,2018
2.4296e+06,2014
2.4296e+06,2015
2.4296e+06,2009
2.4296e+06,2006
2.4296e+06,2009
2.4296e+06,2017
2.4296e+06,2011
2.4296e+06,2008
2.4296e+06,2008
2.4296e+06,2003
2.4296e+06,2014
2.4297e+06,2005
2.4297e+06,2008
2.4297e+06,2005
2.4297e+06,2009
2.4297e+06,2010
2.4297e+06,2009
2.4297e+06,2013
2.4297e+06,2012
2.4297e+06,2019
2.4297e+06,2024
2.4297e+06,2023
2.4297e+06,2021
2.4297e+06,2016
2.4297e+06,2038
2.4297e+06,2037
2.4297e+06,2042
2.4297e+06,2039
2.4297e+06,2033
2.4297e+06,2036
2.4297e+06,2041
2.4297e+06,2047
2.4297e+06,2037
2.4297e+06,2034
2.4297e+06,2031
2.4297e+06,2021
2.4297e+06,2011
2.4298e+06,2012
2.4298e+06,2007
2.4298e+06,2007
2.4298e+06,2001
2.4298e+06,2010
2.4298e+06,2006
2.4298e+06,2002
2.4298e+06,2004
2.4298e+06,1999
2.4298e+06,2008
2.4298e+06,2005
2.4298e+06,2005
2.4298e+06,2002
2.4298e+06,2004
2.4298e+06,2004
2.4298e+06,2009
2.4298e+06,2002
2.4298e+06,2007
2.4298e+06,1998
2.4298e+06,1983
2.4298e+06,1978
2.4298e+06,1986
2.4298e+06,2017
2.4298e+06,2062
2.4298e+06,2141
2.4298e+06,2206
2.4299e+06,2252
2.4299e+06,2277
2.4299e+06,2229
2.4299e+06,2179
2.4299e+06,2119
2.4299e+06,2065
2.4299e+06,2022
2.4299e+06,1991
2.4299e+06,2000
2.4299e+06,1999
2.4299e+06,2000
2.4299e+06,2005
2.4299e+06,2002
2.4299e+06,2013
2.4299e+06,2010
2.4299e+06,2011
2.4299e+06,2007
2.4299e+06,2009
2.4299e+06,2011
2.4299e+06,2008
2.4299e+06,2001
2.4299e+06,2003
2.4299e+06,2006
2.4299e+06,2009
2.4299e+06,2013
2.43e+06,2012
2.43e+06,2011
2.43e+06,2011
2.43e+06,2015
2.43e+06,2013
2.43e+06,2008
2.43e+06,2004
2.43e+06,2015
2.43e+06,2016
2.43e+06,2027
2.43e+06,2020
2.43e+06,2013
2.43e+06,2015
2.43e+06,2028
2.43e+06,2023
2.43e+06,2022
2.43e+06,2018
2.43e+06,2026
2.43e+06,2023
2.43e+06,2030
2.43e+06,2031
2.43e+06,2027
2.43e+06,2032
2.43e+06,2032
2.43e+06,2034
2.43e+06,2039
2.4301e+06,2043
2.4301e+06,2038
2.4301e+06,2043
2.4301e+06,2044
2.4301e+06,2052
2.4301e+06,2051
2.4301e+06,2042
2.4301e+06,2061
2.4301e+06,2055
2.4301e+06,2067
2.4301e+06,2065
2.4301e+06,2064
2.4301e+06,2067
2.4301e+06,2071
2.4301e+06,2077
2.4301e+06,2080
2.4301e+06,2073
2.4301e+06,2074
2.4301e+06,2075
2.4301e+06,2074
2.4301e+06,2078
2.4301e+06,2073
2.4301e+06,2067
2.4301e+06,2063
2.4301e+06,2059
2.4302e+06,2049
2.4302e+06,2041
2.4302e+06,2029
2.4302e+06,2036
2.4302e+06,2031
2.4302e+06,2022
2.4302e+06,2024
2.4302e+06,2015
2.4302e+06,2019
2.4302e+06,2016
2.4302e+06,2011
2.4302e+06,2013
2.4302e+06,2009
2.4302e+06,2004
2.4302e+06,2022
2.4302e+06,2015
2.4302e+06,2008
2.4302e+06,2006
2.4302e+06,2007
2.4302e+06,2012
2.4302e+06,2010
2.4302e+06,2010
2.4302e+06,2010
2.4302e+06,2017
2.4302e+06,2014
2.4302e+06,2008
2.4303e+06,2012
2.4303e+06,2010
2.4303e+06,2013
2.4303e+06,2013
2.4303e+06,2019
2.4303e+06,2012
2.4303e+06,2011
2.4303e+06,2009
2.4303e+06,2014
2.4303e+06,2017
2.4303e+06,2015
2.4303e+06,2014
2.4303e+06,2016
2.4303e+06,2011
2.4303e+06,2019
2.4303e+06,2015
2.4303e+06,2007
2.4303e+06,2017
2.4303e+06,2014
2.4303e+06,2014
2.4303e+06,2017
2.4303e+06,2013
2.4303e+06,2004
2.4303e+06,2007
2.4303e+06,2023
2.4303e+06,2015
2.4304e+06,2008
2.4304e+06,2016
2.4304e+06,2016
2.4304e+06,2015
2.4304e+06,2013
2.4304e+06,2009
2.4304e+06,2007
2.4304e+06,2015
2.4304e+06,2015
2.4304e+06,2015
2.4304e+06,2012
2.4304e+06,2010
2.4304e+06,2015
2.4304e+06,2015
2.4304e+06,2022
2.4304e+06,2020
2.4304e+06,2020
2.4304e+06,2025
2.4304e+06,2031
2.4304e+06,2031
2.4304e+06,2044
2.4304e+06,2037
2.4304e+06,2041
2.4304e+06,2043
2.4304e+06,2044
2.4305e+06,2047
2.4305e+06,2041
2.4305e+06,2041
2.4305e+06,2036
2.4305e+06,2027
2.4305e+06,2019
2.4305e+06,2014
2.4305e+06,2012
2.4305e+06,2007
2.4305e+06,2011
2.4305e+06,2003
2.4305e+06,2002
2.4305e+06,2003
2.4305e+06,2001
2.4305e+06,2008
2.4305e+06,2004
2.4305e+06,2002
2.4305e+06,2002
2.4305e+06,2001
2.4305e+06,2007
2.4305e+06,2004
2.4305e+06,1998
2.4305e+06,2003
2.4305e+06,2003
2.4305e+06,2004
2.4305e+06,1999
2.4306e+06,1984
2.4306e+06,1968
2.4306e+06,1985
2.4306e+06,2025
2.4306e+06,2082
2.4306e+06,2146
2.4306e+06,2204
2.4306e+06,2250
2.4306e+06,2269
2.4306e+06,2225
2.4306e+06,2164
2.4306e+06,2099
2.4306e+06,2050
2.4306e+06,2017
2.4306e+06,2002
2.4306e+06,2006
2.4306e+06,1997
2.4306e+06,2004
2.4306e+06,2009
2.4306e+06,2013
2.4306e+06,2011
2.4306e+06,2009
2.4306e+06,2015
2.4306e+06,2009
2.4306e+06,2014
2.4307e+06,2009
2.4307e+06,2002
2.4307e+06,2005
2.4307e+06,2009
2.4307e+06,2013
2.4307e+06,2015
2.4307e+06,2008
2.4307e+06,2010
2.4307e+06,2011
2.4307e+06,2012
2.4307e+06,2013
2.4307e+06,2011
2.4307e+06,2012
2.4307e+06,2015
2.4307e+06,2018
2.4307e+06,2015
2.4307e+06,2011
2.4307e+06,2012
2.4307e+06,2014
2.4307e+06,2021
2.4307e+06,2024
2.4307e+06,2021
2.4307e+06,2020
2.4307e+06,2018
2.4307e+06,2015
2.4307e+06,2028
2.4308e+06,2025
2.4308e+06,2025
2.4308e+06,2024
2.4308e+06,2030
2.4308e+06,2033
2.4308e+06,2035
2.4308e+06,2036
2.4308e+06,2038
2.4308e+06,2046
2.4308e+06,2046
2.4308e+06,2051
2.4308e+06,2043
2.4308e+06,2053
2.4308e+06,2053
2.4308e+06,2058
2.4308e+06,2059
2.4308e+06,2057
2.4308e+06,2061
2.4308e+06,2065
2.4308e+06,2071
2.4308e+06,2077
2.4308e+06,2072
2.4308e+06,2071
2.4308e+06,2073
2.4308e+06,2084
2.4308e+06,2072
2.4309e+06,2076
2.4309e+06,2067
2.4309e+06,2066
2.4309e+06,2070
2.4309e+06,2054
2.4309e+06,2047
2.4309e+06,2039
2.4309e+06,2041
2.4309e+06,2040
2.4309e+06,2021
2.4309e+06,2030
2.4309e+06,2021
2.4309e+06,2017
2.4309e+06,2018
2.4309e+06,2016
2.4309e+06,2013
2.4309e+06,2012
2.4309e+06,2004
2.4309e+06,2016
2.4309e+06,2004
2.4309e+06,2009
2.4309e+06,2007
2.4309e+06,2007
2.4309e+06,2009
2.4309e+06,2011
2.431e+06,2003
2.431e+06,2005
2.431e+06,2007
2.431e+06,2013
2.431e+06,2008
2.431e+06,2007
2.431e+06,2006
2.431e+06,2008
2.431e+06,2011
2.431e+06,2013
2.431e+06,2006
2.431e+06,2009
2.431e+06,2005
2.431e+06,2005
2.431e+06,2011
2.431e+06,2014
2.431e+06,2012
2.431e+06,2004
2.431e+06,2011
2.431e+06,2006
2.431e+06,2013
2.431e+06,2002
2.431e+06,2016
2.431e+06,2001
2.431e+06,2017
2.431e+06,2009
2.4311e+06,2006
2.4311e+06,2018
2.4311e+06,2006
2.4311e+06,2014
2.4311e+06,2014
2.4311e+06,2007
2.4311e+06,2010
2.4311e+06,2011
2.4311e+06,2015
2.4311e+06,2015
2.4311e+06,1999
2.4311e+06,2007
2.4311e+06,2009
2.4311e+06,2012
2.4311e+06,2009
2.4311e+06,2014
2.4311e+06,2007
2.4311e+06,2007
2.4311e+06,2010
2.4311e+06,2003
2.4311e+06,2007
2.4311e+06,2005
2.4311e+06,2011
2.4311e+06,2015
2.4311e+06,2022
2.4312e+06,2024
2.4312e+06,2021
2.4312e+06,2017
2.4312e+06,2027
2.4312e+06,2031
2.4312e+06,2036
2.4312e+06,2042
2.4312e+06,2040
2.4312e+06,2044
2.4312e+06,2041
2.4312e+06,2045
2.4312e+06,2043
2.4312e+06,2043
2.4312e+06,2037
2.4312e+06,2038
2.4312e+06,2040
2.4312e+06,2026
2.4312e+06,2013
2.4312e+06,2009
2.4312e+06,2010
2.4312e+06,2010
2.4312e+06,1999
2.4312e+06,2003
2.4312e+06,2012
2.4312e+06,2006
2.4312e+06,1995
2.4313e+06,2009
2.4313e+06,2004
2.4313e+06,2003
2.4313e+06,2006
2.4313e+06,2013
2.4313e+06,2003
2.4313e+06,2005
2.4313e+06,2002
2.4313e+06,2005
2.4313e+06,2009
2.4313e+06,2002
2.4313e+06,1978
2.4313e+06,1981
2.4313e+06,1990
2.4313e+06,2018
2.4313e+06,2049
2.4313e+06,2122
2.4313e+06,2192
2.4313e+06,2242
2.4313e+06,2275
2.4313e+06,2255
2.4313e+06,2198
2.4313e+06,2132
2.4313e+06,2070
2.4313e+06,2015
2.4313e+06,2007
2.4314e+06,2003
2.4314e+06,2002
2.4314e+06,2010
2.4314e+06,2018
2.4314e+06,2016
2.4314e+06,2014
2.4314e+06,2000
2.4314e+06,2013
2.4314e+06,2010
2.4314e+06,2011
2.4314e+06,2013
2.4314e+06,2007
2.4314e+06,2012
2.4314e+06,2006
2.4314e+06,2008
2.4314e+06,2010
2.4314e+06,2013
2.4314e+06,2002
2.4314e+06,2010
2.4314e+06,2024
2.4314e+06,2011
2.4314e+06,2008
2.4314e+06,2011
2.4314e+06,2019
2.4314e+06,2020
2.4315e+06,2016
2.4315e+06,2014
2.4315e+06,2017
2.4315e+06,2022
2.4315e+06,2023
2.4315e+06,2018
2.4315e+06,2017
2.4315e+06,2023
2.4315e+06,2029
2.4315e+06,2026
2.4315e+06,2029
2.4315e+06,2029
2.4315e+06,2028
2.4315e+06,2032
2.4315e+06,2039
2.4315e+06,2038
2.4315e+06,2040
2.4315e+06,2038
2.4315e+06,2041
2.4315e+06,2033
2.4315e+06,2053
2.4315e+06,2046
2.4315e+06,2048
2.4315e+06,2059
2.4315e+06,2058
2.4315e+06,2063
2.4316e+06,2053
2.4316e+06,2066
2.4316e+06,2064
2.4316e+06,2074
2.4316e+06,2076
2.4316e+06,2079
2.4316e+06,2071
2.4316e+06,2079
2.4316e+06,2076
2.4316e+06,2087
2.4316e+06,2078
2.4316e+06,2075
2.4316e+06,2077
2.4316e+06,2076
2.4316e+06,2072
2.4316e+06,2065
2.4316e+06,2053
2.4316e+06,2056
2.4316e+06,2048
2.4316e+06,2043
2.4316e+06,2040
2.4316e+06,2032
2.4316e+06,2024
2.4316e+06,2023
2.4316e+06,2027
2.4317e+06,2022
2.4317e+06,2006
2.4317e+06,2015
2.4317e+06,2017
2.4317e+06,2016
2.4317e+06,2020
2.4317e+06,2019
2.4317e+06,2013
2.4317e+06,2020
2.4317e+06,2017
2.4317e+06,2014
2.4317e+06,2016
2.4317e+06,2010
2.4317e+06,2016
2.4317e+06,2017
2.4317e+06,2021
2.4317e+06,2016
2.4317e+06,2011
2.4317e+06,2014
2.4317e+06,2021
2.4317e+06,2018
2.4317e+06,2021
2.4317e+06,2017
2.4317e+06,2018
2.4317e+06,2022
2.4317e+06,2020
2.4318e+06,2016
2.4318e+06,2018
2.4318e+06,2019
2.4318e+06,2018
2.4318e+06,2022
2.4318e+06,2018
2.4318e+06,2019
2.4318e+06,2015
2.4318e+06,2020
2.4318e+06,2011
2.4318e+06,2022
2.4318e+06,2015
2.4318e+06,2019
2.4318e+06,2021
2.4318e+06,2026
2.4318e+06,2018
2.4318e+06,2012
2.4318e+06,2016
2.4318e+06,2023
2.4318e+06,2023
2.4318e+06,2018
2.4318e+06,2010
2.4318e+06,2009
2.4318e+06,2021
2.4318e+06,2014
2.4318e+06,2015
2.4319e+06,2017
2.4319e+06,2011
2.4319e+06,2017
2.4319e+06,2020
2.4319e+06,2017
2.4319e+06,2006
2.4319e+06,2013
2.4319e+06,2010
2.4319e+06,2012
2.4319e+06,2018
2.4319e+06,2009
2.4319e+06,2011
2.4319e+06,2005
2.4319e+06,2007
2.4319e+06,2015
2.4319e+06,2010
2.4319e+06,2017
2.4319e+06,2021
2.4319e+06,2024
2.4319e+06,2030
2.4319e+06,2024
2.4319e+06,2023
2.4319e+06,2024
2.4319e+06,2029
2.4319e+06,2044
2.432e+06,2046
2.432e+06,2043
2.432e+06,2046
2.432e+06,2047
2.432e+06,2044
2.432e+06,2050
2.432e+06,2046
2.432e+06,2039
2.432e+06,2036
2.432e+06,2032
2.432e+06,2028
2.432e+06,2015
2.432e+06,2007
2.432e+06,2009
2.432e+06,2017
2.432e+06,2001
2.432e+06,2007
2.432e+06,2006
2.432e+06,2003
2.432e+06,2013
2.432e+06,2004
2.432e+06,2006
2.432e+06,2004
2.432e+06,2005
2.432e+06,2003
2.432e+06,2007
2.4321e+06,2004
2.4321e+06,2002
2.4321e+06,2010
2.4321e+06,2003
2.4321e+06,1999
2.4321e+06,1982
2.4321e+06,1974
2.4321e+06,1987
2.4321e+06,2024
2.4321e+06,2075
2.4321e+06,2135
2.4321e+06,2195
2.4321e+06,2247
2.4321e+06,2280
2.4321e+06,2250
2.4321e+06,2190
2.4321e+06,2122
2.4321e+06,2059
2.4321e+06,2018
2.4321e+06,2005
2.4321e+06,2011
2.4321e+06,2008
2.4321e+06,2004
2.4321e+06,2016
2.4321e+06,2018
2.4322e+06,2017
2.4322e+06,2003
2.4322e+06,2008
2.4322e+06,2011
2.4322e+06,2014
2.4322e+06,2010
2.4322e+06,2009
2.4322e+06,2014
2.4322e+06,2014
2.4322e+06,2012
2.4322e+06,2018
2.4322e+06,2009
2.4322e+06,2010
2.4322e+06,2013
2.4322e+06,2021
2.4322e+06,2023
2.4322e+06,2017
2.4322e+06,2004
2.4322e+06,2020
2.4322e+06,2027
2.4322e+06,2020
2.4322e+06,2018
2.4322e+06,2021
2.4322e+06,2023
2.4322e+06,2024
2.4322e+06,2019
2.4323e+06,2023
2.4323e+06,2023
2.4323e+06,2031
2.4323e+06,2032
2.4323e+06,2036
2.4323e+06,2033
2.4323e+06,2034
2.4323e+06,2027
2.4323e+06,2045
2.4323e+06,2045
2.4323e+06,2042
2.4323e+06,2034
2.4323e+06,2041
2.4323e+06,2051
2.4323e+06,2057
2.4323e+06,2053
2.4323e+06,2055
2.4323e+06,2053
2.4323e+06,2065
2.4323e+06,2064
2.4323e+06,2070
2.4323e+06,2072
2.4323e+06,2076
2.4323e+06,2077
2.4323e+06,2076
2.4323e+06,2081
2.4324e+06,2087
2.4324e+06,2078
2.4324e+06,2085
2.4324e+06,2087
2.4324e+06,2091
2.4324e+06,2085
2.4324e+06,2075
2.4324e+06,2085
2.4324e+06,2077
2.4324e+06,2074
2.4324e+06,2057
2.4324e+06,2047
2.4324e+06,2054
2.4324e+06,2048
2.4324e+06,2039
2.4324e+06,2038
2.4324e+06,2021
2.4324e+06,2030
2.4324e+06,2028
2.4324e+06,2023
2.4324e+06,2018
2.4324e+06,2017
2.4324e+06,2019
2.4324e+06,2021
2.4324e+06,2014
2.4325e+06,2019
2.4325e+06,2014
2.4325e+06,2020
2.4325e+06,2018
2.4325e+06,2022
2.4325e+06,2018
2.4325e+06,2011
2.4325e+06,2019
2.4325e+06,2020
2.4325e+06,2023
2.4325e+06,2018
2.4325e+06,2021
2.4325e+06,2019
2.4325e+06,2020
2.4325e+06,2022
2.4325e+06,2024
2.4325e+06,2022
2.4325e+06,2015
2.4325e+06,2026
2.4325e+06,2023
2.4325e+06,2021
2.4325e+06,2020
2.4325e+06,2019
2.4325e+06,2021
2.4325e+06,2023
2.4325e+06,2025
2.4326e+06,2021
2.4326e+06,2027
2.4326e+06,2021
2.4326e+06,2022
2.4326e+06,2026
2.4326e+06,2023
2.4326e+06,2019
2.4326e+06,2018
2.4326e+06,2029
2.4326e+06,2027
2.4326e+06,2016
2.4326e+06,2018
2.4326e+06,2020
2.4326e+06,2018
2.4326e+06,2028
2.4326e+06,2025
2.4326e+06,2020
2.4326e+06,2021
2.4326e+06,2014
2.4326e+06,2023
2.4326e+06,2024
2.4326e+06,2021
2.4326e+06,2021
2.4326e+06,2023
2.4326e+06,2022
2.4327e+06,2014
2.4327e+06,2022
2.4327e+06,2015
2.4327e+06,2027
2.4327e+06,2027
2.4327e+06,2027
2.4327e+06,2021
2.4327e+06,2021
2.4327e+06,2019
2.4327e+06,2021
2.4327e+06,2023
2.4327e+06,2010
2.4327e+06,2021
2.4327e+06,2022
2.4327e+06,2022
2.4327e+06,2019
2.4327e+06,2022
2.4327e+06,2012
2.4327e+06,2018
2.4327e+06,2027
2.4327e+06,2023
2.4327e+06,2024
2.4327e+06,2025
2.4327e+06,2028
2.4327e+06,2037
2.4327e+06,2028
2.4328e+06,2033
2.4328e+06,2035
2.4328e+06,2032
2.4328e+06,2045
2.4328e+06,2055
2.4328e+06,2057
2.4328e+06,2050
2.4328e+06,2051
2.4328e+06,2052
2.4328e+06,2058
2.4328e+06,2062
2.4328e+06,2055
2.4328e+06,2050
2.4328e+06,2050
2.4328e+06,2045
2.4328e+06,2034
2.4328e+06,2025
2.4328e+06,2022
2.4328e+06,2026
2.4328e+06,2023
2.4328e+06,2024
2.4328e+06,2020
2.4328e+06,2012
2.4328e+06,2019
2.4328e+06,2019
2.4328e+06,2017
2.4329e+06,2025
2.4329e+06,2023
2.4329e+06,2019
2.4329e+06,2024
2.4329e+06,2027
2.4329e+06,2018
2.4329e+06,2007
2.4329e+06,2017
2.4329e+06,2023
2.4329e+06,2012
2.4329e+06,1995
2.4329e+06,2000
2.4329e+06,2010
2.4329e+06,2036
2.4329e+06,2094
2.4329e+06,2156
2.4329e+06,2222
2.4329e+06,2261
2.4329e+06,2295
2.4329e+06,2261
2.4329e+06,2194
2.4329e+06,2129
2.4329e+06,2067
2.4329e+06,2032
2.4329e+06,2031
2.433e+06,2029
2.433e+06,2028
2.433e+06,2031
2.433e+06,2035
2.433e+06,2035
2.433e+06,2029
2.433e+06,2032
2.433e+06,2031
2.433e+06,2025
2.433e+06,2030
2.433e+06,2027
2.433e+06,2030
2.433e+06,2024
2.433e+06,2029
2.433e+06,2022
2.433e+06,2036
2.433e+06,2028
2.433e+06,2029
2.433e+06,2035
2.433e+06,2037
2.433e+06,2036
2.433e+06,2032
2.433e+06,2032
2.433e+06,2029
2.433e+06,2042
2.433e+06,2038
2.4331e+06,2040
2.4331e+06,2039
2.4331e+06,2028
2.4331e+06,2043
2.4331e+06,2042
2.4331e+06,2039
2.4331e+06,2038
2.4331e+06,2045
2.4331e+06,2050
2.4331e+06,2054
2.4331e+06,2047
2.4331e+06,2040
2.4331e+06,2052
2.4331e+06,2050
2.4331e+06,2058
2.4331e+06,2054
2.4331e+06,2060
2.4331e+06,2051
2.4331e+06,2064
2.4331e+06,2060
2.4331e+06,2066
2.4331e+06,2070
2.4331e+06,2070
2.4331e+06,2077
2.4331e+06,2073
2.4332e+06,2087
2.4332e+06,2082
2.4332e+06,2085
2.4332e+06,2095
2.4332e+06,2092
2.4332e+06,2098
2.4332e+06,2095
2.4332e+06,2093
2.4332e+06,2099
2.4332e+06,2101
2.4332e+06,2102
2.4332e+06,2105
2.4332e+06,2096
2.4332e+06,2094
2.4332e+06,2086
2.4332e+06,2085
2.4332e+06,2077
2.4332e+06,2072
2.4332e+06,2062
2.4332e+06,2061
2.4332e+06,2054
2.4332e+06,2048
2.4332e+06,2047
2.4332e+06,2041
2.4332e+06,2037
2.4332e+06,2041
2.4333e+06,2032
2.4333e+06,2030
2.4333e+06,2033
2.4333e+06,2033
2.4333e+06,2034
2.4333e+06,2036
2.4333e+06,2030
2.4333e+06,2033
2.4333e+06,2026
2.4333e+06,2033
2.4333e+06,2034
2.4333e+06,2034
2.4333e+06,2031
2.4333e+06,2035
2.4333e+06,2032
2.4333e+06,2034
2.4333e+06,2024
2.4333e+06,2034
2.4333e+06,2029
2.4333e+06,2038
2.4333e+06,2033
2.4333e+06,2030
2.4333e+06,2027
2.4333e+06,2037
2.4333e+06,2036
2.4333e+06,2026
2.4334e+06,2039
2.4334e+06,2034
2.4334e+06,2036
2.4334e+06,2038
2.4334e+06,2026
2.4334e+06,2036
2.4334e+06,2036
2.4334e+06,2039
2.4334e+06,2038
2.4334e+06,2044
2.4334e+06,2036
2.4334e+06,2032
2.4334e+06,2038
2.4334e+06,2038
2.4334e+06,2034
2.4334e+06,2033
2.4334e+06,2034
2.4334e+06,2040
2.4334e+06,2036
2.4334e+06,2038
2.4334e+06,2034
2.4334e+06,2027
2.4334e+06,2031
2.4334e+06,2033
2.4334e+06,2035
2.4335e+06,2031
2.4335e+06,2031
2.4335e+06,2035
2.4335e+06,2034
2.4335e+06,2035
2.4335e+06,2035
2.4335e+06,2024
2.4335e+06,2031
2.4335e+06,2037
2.4335e+06,2033
2.4335e+06,2030
2.4335e+06,2030
2.4335e+06,2031
2.4335e+06,2027
2.4335e+06,2034
2.4335e+06,2033
2.4335e+06,2035
2.4335e+06,2030
2.4335e+06,2034
2.4335e+06,2039
2.4335e+06,2033
2.4335e+06,2031
2.4335e+06,2029
2.4335e+06,2034
2.4335e+06,2032
2.4335e+06,2033
2.4336e+06,2033
2.4336e+06,2032
2.4336e+06,2031
2.4336e+06,2031
2.4336e+06,2033
2.4336e+06,2034
2.4336e+06,2031
2.4336e+06,2040
2.4336e+06,2043
2.4336e+06,2046
2.4336e+06,2043
2.4336e+06,2033
2.4336e+06,2042
2.4336e+06,2048
2.4336e+06,2062
2.4336e+06,2063
2.4336e+06,2063
2.4336e+06,2067
2.4336e+06,2066
2.4336e+06,2066
2.4336e+06,2066
2.4336e+06,2067
2.4336e+06,2065
2.4336e+06,2059
2.4336e+06,2053
2.4337e+06,2044
2.4337e+06,2027
2.4337e+06,2030
2.4337e+06,2038
2.4337e+06,2041
2.4337e+06,2033
2.4337e+06,2030
2.4337e+06,2027
2.4337e+06,2026
2.4337e+06,2026
2.4337e+06,2036
2.4337e+06,2037
2.4337e+06,2032
2.4337e+06,2033
2.4337e+06,2039
2.4337e+06,2033
2.4337e+06,2030
2.4337e+06,2025
2.4337e+06,2030
2.4337e+06,2035
2.4337e+06,2031
2.4337e+06,2017
2.4337e+06,1998
2.4337e+06,2017
2.4337e+06,2049
2.4337e+06,2093
2.4338e+06,2161
2.4338e+06,2223
2.4338e+06,2270
2.4338e+06,2306
2.4338e+06,2272
2.4338e+06,2211
2.4338e+06,2154
2.4338e+06,2097
2.4338e+06,2048
2.4338e+06,2034
2.4338e+06,2035
2.4338e+06,2026
2.4338e+06,2035
2.4338e+06,2045
2.4338e+06,2047
2.4338e+06,2044
2.4338e+06,2036
2.4338e+06,2038
2.4338e+06,2042
2.4338e+06,2042
2.4338e+06,2036
2.4338e+06,2040
2.4338e+06,2036
2.4338e+06,2045
2.4338e+06,2045
2.4338e+06,2037
2.4339e+06,2042
2.4339e+06,2040
2.4339e+06,2051
2.4339e+06,2050
2.4339e+06,2050
2.4339e+06,2043
2.4339e+06,2041
2.4339e+06,2041
2.4339e+06,2059
2.4339e+06,2049
2.4339e+06,2053
2.4339e+06,2052
2.4339e+06,2046
2.4339e+06,2056
2.4339e+06,2055
2.4339e+06,2050
2.4339e+06,2057
2.4339e+06,2055
2.4339e+06,2063
2.4339e+06,2067
2.4339e+06,2058
2.4339e+06,2067
2.4339e+06,2065
2.4339e+06,2071
2.4339e+06,2071
2.434e+06,2076
2.434e+06,2070
2.434e+06,2080
2.434e+06,2082
2.434e+06,2090
2.434e+06,2081
2.434e+06,2086
2.434e+06,2086
2.434e+06,2097
2.434e+06,2096
2.434e+06,2104
2.434e+06,2099
2.434e+06,2104
2.434e+06,2106
2.434e+06,2110
2.434e+06,2112
2.434e+06,2114
2.434e+06,2113
2.434e+06,2119
2.434e+06,2127
2.434e+06,2117
2.434e+06,2117
2.434e+06,2108
2.434e+06,2115
2.434e+06,2113
2.434e+06,2105
2.4341e+06,2100
2.4341e+06,2083
2.4341e+06,2090
2.4341e+06,2084
2.4341e+06,2075
2.4341e+06,2071
2.4341e+06,2067
2.4341e+06,2063
2.4341e+06,2065
2.4341e+06,2063
2.4341e+06,2052
2.4341e+06,2054
2.4341e+06,2053
2.4341e+06,2051
2.4341e+06,2054
2.4341e+06,2053
2.4341e+06,2047
2.4341e+06,2046
2.4341e+06,2049
2.4341e+06,2055
2.4341e+06,2049
2.4341e+06,2053
2.4341e+06,2050
2.4341e+06,2053
2.4341e+06,2056
2.4342e+06,2056
2.4342e+06,2053
2.4342e+06,2051
2.4342e+06,2054
2.4342e+06,2055
2.4342e+06,2054
2.4342e+06,2055
2.4342e+06,2057
2.4342e+06,2050
2.4342e+06,2056
2.4342e+06,2056
2.4342e+06,2054
2.4342e+06,2054
2.4342e+06,2062
2.4342e+06,2062
2.4342e+06,2064
2.4342e+06,2057
2.4342e+06,2055
2.4342e+06,2055
2.4342e+06,2059
2.4342e+06,2055
2.4342e+06,2058
2.4342e+06,2058
2.4342e+06,2054
2.4342e+06,2057
2.4342e+06,2061
2.4343e+06,2058
2.4343e+06,2053
2.4343e+06,2055
2.4343e+06,2059
2.4343e+06,2059
2.4343e+06,2058
2.4343e+06,2060
2.4343e+06,2055
2.4343e+06,2058
2.4343e+06,2061
2.4343e+06,2055
2.4343e+06,2055
2.4343e+06,2055
2.4343e+06,2059
2.4343e+06,2057
2.4343e+06,2054
2.4343e+06,2054
2.4343e+06,2056
2.4343e+06,2056
2.4343e+06,2060
2.4343e+06,2056
2.4343e+06,2053
2.4343e+06,2050
2.4343e+06,2053
2.4343e+06,2055
2.4343e+06,2056
2.4344e+06,2055
2.4344e+06,2066
2.4344e+06,2067
2.4344e+06,2064
2.4344e+06,2068
2.4344e+06,2062
2.4344e+06,2061
2.4344e+06,2081
2.4344e+06,2085
2.4344e+06,2088
2.4344e+06,2082
2.4344e+06,2088
2.4344e+06,2084
2.4344e+06,2088
2.4344e+06,2092
2.4344e+06,2085
2.4344e+06,2080
2.4344e+06,2073
2.4344e+06,2068
2.4344e+06,2061
2.4344e+06,2055
2.4344e+06,2047
2.4344e+06,2051
2.4344e+06,2052
2.4344e+06,2052
2.4345e+06,2053
2.4345e+06,2047
2.4345e+06,2043
2.4345e+06,2062
2.4345e+06,2055
2.4345e+06,2047
2.4345e+06,2047
2.4345e+06,2052
2.4345e+06,2053
2.4345e+06,2056
2.4345e+06,2047
2.4345e+06,2047
2.4345e+06,2052
2.4345e+06,2048
2.4345e+06,2035
2.4345e+06,2028
2.4345e+06,2029
2.4345e+06,2047
2.4345e+06,2105
2.4345e+06,2166
2.4345e+06,2236
2.4345e+06,2280
2.4345e+06,2312
2.4345e+06,2301
2.4345e+06,2257
2.4345e+06,2188
2.4346e+06,2132
2.4346e+06,2085
2.4346e+06,2054
2.4346e+06,2046
2.4346e+06,2048
2.4346e+06,2049
2.4346e+06,2054
2.4346e+06,2056
2.4346e+06,2063
2.4346e+06,2059
2.4346e+06,2055
2.4346e+06,2051
2.4346e+06,2054
2.4346e+06,2054
2.4346e+06,2063
2.4346e+06,2052
2.4346e+06,2058
2.4346e+06,2059
2.4346e+06,2059
2.4346e+06,2060
2.4346e+06,2060
2.4346e+06,2056
2.4346e+06,2057
2.4346e+06,2068
2.4346e+06,2069
2.4347e+06,2064
2.4347e+06,2062
2.4347e+06,2055
2.4347e+06,2063
2.4347e+06,2071
2.4347e+06,2067
2.4347e+06,2059
2.4347e+06,2066
2.4347e+06,2068
2.4347e+06,2073
2.4347e+06,2073
2.4347e+06,2068
2.4347e+06,2070
2.4347e+06,2077
2.4347e+06,2077
2.4347e+06,2079
2.4347e+06,2076
2.4347e+06,2077
2.4347e+06,2076
2.4347e+06,2085
2.4347e+06,2088
2.4347e+06,2086
2.4347e+06,2086
2.4347e+06,2095
2.4347e+06,2091
2.4347e+06,2093
2.4348e+06,2094
2.4348e+06,2085
2.4348e+06,2099
2.4348e+06,2107
2.4348e+06,2110
2.4348e+06,2113
2.4348e+06,2108
2.4348e+06,2108
2.4348e+06,2117
2.4348e+06,2116
2.4348e+06,2117
2.4348e+06,2121
2.4348e+06,2119
2.4348e+06,2123
2.4348e+06,2128
2.4348e+06,2118
2.4348e+06,2112
2.4348e+06,2108
2.4348e+06,2107
2.4348e+06,2107
2.4348e+06,2091
2.4348e+06,2086
2.4348e+06,2083
2.4348e+06,2077
2.4348e+06,2073
2.4348e+06,2072
2.4349e+06,2063
2.4349e+06,2059
2.4349e+06,2060
2.4349e+06,2061
2.4349e+06,2059
2.4349e+06,2052
2.4349e+06,2051
2.4349e+06,2051
2.4349e+06,2054
2.4349e+06,2052
2.4349e+06,2052
2.4349e+06,2053
2.4349e+06,2057
2.4349e+06,2056
2.4349e+06,2053
2.4349e+06,2052
2.4349e+06,2051
2.4349e+06,2048
2.4349e+06,2050
2.4349e+06,2048
2.4349e+06,2054
2.4349e+06,2049
2.4349e+06,2051
2.4349e+06,2054
2.4349e+06,2055
2.435e+06,2053
2.435e+06,2051
2.435e+06,2054
2.435e+06,2052
2.435e+06,2061
2.435e+06,2055
2.435e+06,2048
2.435e+06,2048
2.435e+06,2058
2.435e+06,2054
2.435e+06,2048
2.435e+06,2045
2.435e+06,2049
2.435e+06,2057
2.435e+06,2060
2.435e+06,2057
2.435e+06,2055
2.435e+06,2055
2.435e+06,2053
2.435e+06,2063
2.435e+06,2054
2.435e+06,2054
2.435e+06,2045
2.435e+06,2053
2.435e+06,2059
2.435e+06,2053
2.4351e+06,2051
2.4351e+06,2049
2.4351e+06,2049
2.4351e+06,2052
2.4351e+06,2050
2.4351e+06,2048
2.4351e+06,2045
2.4351e+06,2051
2.4351e+06,2054
2.4351e+06,2047
2.4351e+06,2050
2.4351e+06,2042
2.4351e+06,2045
2.4351e+06,2047
2.4351e+06,2049
2.4351e+06,2046
2.4351e+06,2047
2.4351e+06,2053
2.4351e+06,2047
2.4351e+06,2051
2.4351e+06,2049
2.4351e+06,2050
2.4351e+06,2056
2.4351e+06,2060
2.4351e+06,2063
2.4352e+06,2067
2.4352e+06,2058
2.4352e+06,2059
2.4352e+06,2072
2.4352e+06,2086
2.4352e+06,2078
2.4352e+06,2077
2.4352e+06,2081
2.4352e+06,2082
2.4352e+06,2082
2.4352e+06,2080
2.4352e+06,2074
2.4352e+06,2070
2.4352e+06,2074
2.4352e+06,2061
2.4352e+06,2053
2.4352e+06,2052
2.4352e+06,2043
2.4352e+06,2047
2.4352e+06,2040
2.4352e+06,2052
2.4352e+06,2047
2.4352e+06,2048
2.4352e+06,2043
2.4352e+06,2046
2.4352e+06,2043
2.4353e+06,2044
2.4353e+06,2041
2.4353e+06,2043
2.4353e+06,2048
2.4353e+06,2045
2.4353e+06,2045
2.4353e+06,2042
2.4353e+06,2042
2.4353e+06,2042
2.4353e+06,2031
2.4353e+06,2019
2.4353e+06,2017
2.4353e+06,2043
2.4353e+06,2091
2.4353e+06,2150
2.4353e+06,2222
2.4353e+06,2265
2.4353e+06,2305
2.4353e+06,2307
2.4353e+06,2252
2.4353e+06,2193
2.4353e+06,2126
2.4353e+06,2074
2.4353e+06,2047
2.4353e+06,2044
2.4353e+06,2043
2.4354e+06,2039
2.4354e+06,2046
2.4354e+06,2055
2.4354e+06,2058
2.4354e+06,2051
2.4354e+06,2049
2.4354e+06,2044
2.4354e+06,2047
2.4354e+06,2051
2.4354e+06,2054
2.4354e+06,2045
2.4354e+06,2044
2.4354e+06,2041
2.4354e+06,2047
2.4354e+06,2041
2.4354e+06,2049
2.4354e+06,2051
2.4354e+06,2052
2.4354e+06,2048
2.4354e+06,2059
2.4354e+06,2052
2.4354e+06,2051
2.4354e+06,2049
2.4354e+06,2055
2.4354e+06,2060
2.4355e+06,2055
2.4355e+06,2054
2.4355e+06,2063
2.4355e+06,2063
2.4355e+06,2066
2.4355e+06,2055
2.4355e+06,2059
2.4355e+06,2064
2.4355e+06,2067
2.4355e+06,2069
2.4355e+06,2066
2.4355e+06,2065
2.4355e+06,2072
2.4355e+06,2072
2.4355e+06,2075
2.4355e+06,2073
2.4355e+06,2074
2.4355e+06,2076
2.4355e+06,2083
2.4355e+06,2085
2.4355e+06,2092
2.4355e+06,2091
2.4355e+06,2090
2.4355e+06,2094
2.4355e+06,2103
2.4355e+06,2105
2.4356e+06,2109
2.4356e+06,2105
2.4356e+06,2111
2.4356e+06,2109
2.4356e+06,2113
2.4356e+06,2116
2.4356e+06,2113
2.4356e+06,2119
2.4356e+06,2123
2.4356e+06,2123
2.4356e+06,2117
2.4356e+06,2110
2.4356e+06,2102
2.4356e+06,2102
2.4356e+06,2103
2.4356e+06,2099
2.4356e+06,2088
2.4356e+06,2074
2.4356e+06,2070
2.4356e+06,2075
2.4356e+06,2063
2.4356e+06,2061
2.4356e+06,2056
2.4356e+06,2056
2.4356e+06,2058
2.4357e+06,2055
2.4357e+06,2052
2.4357e+06,2047
2.4357e+06,2048
2.4357e+06,2052
2.4357e+06,2051
2.4357e+06,2045
2.4357e+06,2046
2.4357e+06,2046
2.4357e+06,2049
2.4357e+06,2045
2.4357e+06,2039
2.4357e+06,2050
2.4357e+06,2043
2.4357e+06,2048
2.4357e+06,2051
2.4357e+06,2047
2.4357e+06,2049
2.4357e+06,2047
2.4357e+06,2046
2.4357e+06,2051
2.4357e+06,2047
2.4357e+06,2050
2.4357e+06,2052
2.4357e+06,2051
2.4357e+06,2046
2.4358e+06,2051
2.4358e+06,2047
2.4358e+06,2053
2.4358e+06,2051
2.4358e+06,2050
2.4358e+06,2048
2.4358e+06,2046
2.4358e+06,2057
2.4358e+06,2050
2.4358e+06,2049
2.4358e+06,2053
2.4358e+06,2053
2.4358e+06,2043
2.4358e+06,2051
2.4358e+06,2054
2.4358e+06,2052
2.4358e+06,2047
2.4358e+06,2045
2.4358e+06,2047
2.4358e+06,2057
2.4358e+06,2048
2.4358e+06,2047
2.4358e+06,2047
2.4358e+06,2050
2.4358e+06,2050
2.4358e+06,2046
2.4359e+06,2048
2.4359e+06,2045
2.4359e+06,2047
2.4359e+06,2053
2.4359e+06,2048
2.4359e+06,2049
2.4359e+06,2045
2.4359e+06,2044
2.4359e+06,2049
2.4359e+06,2048
2.4359e+06,2044
2.4359e+06,2045
2.4359e+06,2046
2.4359e+06,2049
2.4359e+06,2044
2.4359e+06,2042
2.4359e+06,2044
2.4359e+06,2045
2.4359e+06,2052
2.4359e+06,2047
2.4359e+06,2048
2.4359e+06,2044
2.4359e+06,2040
2.4359e+06,2046
2.4359e+06,2048
2.436e+06,2052
2.436e+06,2046
2.436e+06,2053
2.436e+06,2060
2.436e+06,2062
2.436e+06,2056
2.436e+06,2060
2.436e+06,2067
2.436e+06,2073
2.436e+06,2074
2.436e+06,2073
2.436e+06,2070
2.436e+06,2071
2.436e+06,2077
2.436e+06,2075
2.436e+06,2079
2.436e+06,2060
2.436e+06,2057
2.436e+06,2051
2.436e+06,2045
2.436e+06,2047
2.436e+06,2039
2.436e+06,2039
2.436e+06,2043
2.436e+06,2036
2.436e+06,2040
2.4361e+06,2038
2.4361e+06,2036
2.4361e+06,2036
2.4361e+06,2038
2.4361e+06,2040
2.4361e+06,2034
2.4361e+06,2036
2.4361e+06,2037
2.4361e+06,2040
2.4361e+06,2037
2.4361e+06,2039
2.4361e+06,2037
2.4361e+06,2029
2.4361e+06,2027
2.4361e+06,2018
2.4361e+06,2015
2.4361e+06,2045
2.4361e+06,2090
2.4361e+06,2159
2.4361e+06,2225
2.4361e+06,2270
2.4361e+06,2308
2.4361e+06,2291
2.4361e+06,2239
2.4361e+06,2176
2.4362e+06,2107
2.4362e+06,2051
2.4362e+06,2036
2.4362e+06,2044
2.4362e+06,2047
2.4362e+06,2047
2.4362e+06,2040
2.4362e+06,2040
2.4362e+06,2042
2.4362e+06,2047
2.4362e+06,2045
2.4362e+06,2039
2.4362e+06,2037
2.4362e+06,2047
2.4362e+06,2039
2.4362e+06,2045
2.4362e+06,2042
2.4362e+06,2042
2.4362e+06,2043
2.4362e+06,2047
2.4362e+06,2039
2.4362e+06,2039
2.4362e+06,2041
2.4362e+06,2042
2.4362e+06,2050
2.4362e+06,2050
2.4363e+06,2046
2.4363e+06,2043
2.4363e+06,2047
2.4363e+06,2059
2.4363e+06,2051
2.4363e+06,2051
2.4363e+06,2047
2.4363e+06,2046
2.4363e+06,2047
2.4363e+06,2055
2.4363e+06,2046
2.4363e+06,2058
2.4363e+06,2051
2.4363e+06,2060
2.4363e+06,2063
2.4363e+06,2060
2.4363e+06,2053
2.4363e+06,2060
2.4363e+06,2062
2.4363e+06,2063
2.4363e+06,2063
2.4363e+06,2075
2.4363e+06,2073
2.4363e+06,2077
2.4363e+06,2079
2.4363e+06,2069
2.4364e+06,2088
2.4364e+06,2084
2.4364e+06,2086
2.4364e+06,2094
2.4364e+06,2095
2.4364e+06,2095
2.4364e+06,2090
2.4364e+06,2094
2.4364e+06,2103
2.4364e+06,2106
2.4364e+06,2107
2.4364e+06,2108
2.4364e+06,2103
2.4364e+06,2108
2.4364e+06,2103
2.4364e+06,2101
2.4364e+06,2095
2.4364e+06,2094
2.4364e+06,2085
2.4364e+06,2086
2.4364e+06,2073
2.4364e+06,2066
2.4364e+06,2062
2.4364e+06,2056
2.4364e+06,2054
2.4365e+06,2046
2.4365e+06,2043
2.4365e+06,2041
2.4365e+06,2037
2.4365e+06,2041
2.4365e+06,2039
2.4365e+06,2032
2.4365e+06,2029
2.4365e+06,2041
2.4365e+06,2035
2.4365e+06,2034
2.4365e+06,2030
2.4365e+06,2030
2.4365e+06,2035
2.4365e+06,2036
2.4365e+06,2035
2.4365e+06,2031
2.4365e+06,2032
2.4365e+06,2033
2.4365e+06,2039
2.4365e+06,2037
2.4365e+06,2033
2.4365e+06,2035
2.4365e+06,2037
2.4365e+06,2039
2.4365e+06,2035
2.4366e+06,2038
2.4366e+06,2031
2.4366e+06,2029
2.4366e+06,2036
2.4366e+06,2040
2.4366e+06,2033
2.4366e+06,2035
2.4366e+06,2037
2.4366e+06,2038
2.4366e+06,2040
2.4366e+06,2028
2.4366e+06,2032
2.4366e+06,2032
2.4366e+06,2031
2.4366e+06,2038
2.4366e+06,2033
2.4366e+06,2037
2.4366e+06,2025
2.4366e+06,2036
2.4366e+06,2037
2.4366e+06,2028
2.4366e+06,2027
2.4366e+06,2034
2.4366e+06,2039
2.4366e+06,2035
2.4367e+06,2036
2.4367e+06,2033
2.4367e+06,2034
2.4367e+06,2034
2.4367e+06,2036
2.4367e+06,2038
2.4367e+06,2027
2.4367e+06,2037
2.4367e+06,2041
2.4367e+06,2036
2.4367e+06,2026
2.4367e+06,2026
2.4367e+06,2032
2.4367e+06,2033
2.4367e+06,2032
2.4367e+06,2039
2.4367e+06,2030
2.4367e+06,2027
2.4367e+06,2033
2.4367e+06,2037
2.4367e+06,2036
2.4367e+06,2031
2.4367e+06,2031
2.4367e+06,2035
2.4367e+06,2036
2.4367e+06,2036
2.4368e+06,2031
2.4368e+06,2020
2.4368e+06,2034
2.4368e+06,2040
2.4368e+06,2032
2.4368e+06,2033
2.4368e+06,2036
2.4368e+06,2038
2.4368e+06,2043
2.4368e+06,2043
2.4368e+06,2045
2.4368e+06,2042
2.4368e+06,2048
2.4368e+06,2053
2.4368e+06,2056
2.4368e+06,2058
2.4368e+06,2049
2.4368e+06,2058
2.4368e+06,2065
2.4368e+06,2067
2.4368e+06,2063
2.4368e+06,2054
2.4368e+06,2054
2.4368e+06,2052
2.4368e+06,2043
2.4368e+06,2032
2.4369e+06,2035
2.4369e+06,2032
2.4369e+06,2030
2.4369e+06,2032
2.4369e+06,2033
2.4369e+06,2024
2.4369e+06,2026
2.4369e+06,2028
2.4369e+06,2028
2.4369e+06,2026
2.4369e+06,2028
2.4369e+06,2026
2.4369e+06,2027
2.4369e+06,2029
2.4369e+06,2022
2.4369e+06,2023
2.4369e+06,2023
2.4369e+06,2031
2.4369e+06,2022
2.4369e+06,2024
2.4369e+06,2004
2.4369e+06,2004
2.4369e+06,2022
2.4369e+06,2067
2.4369e+06,2135
2.437e+06,2202
2.437e+06,2245
2.437e+06,2287
2.437e+06,2302
2.437e+06,2237
2.437e+06,2173
2.437e+06,2107
2.437e+06,2050
2.437e+06,2037
2.437e+06,2036
2.437e+06,2035
2.437e+06,2035
2.437e+06,2037
2.437e+06,2036
2.437e+06,2035
2.437e+06,2037
2.437e+06,2034
2.437e+06,2028
2.437e+06,2035
2.437e+06,2039
2.437e+06,2033
2.437e+06,2030
2.437e+06,2030
2.437e+06,2038
2.437e+06,2026
2.437e+06,2038
2.4371e+06,2034
2.4371e+06,2035
2.4371e+06,2035
2.4371e+06,2041
2.4371e+06,2036
2.4371e+06,2037
2.4371e+06,2040
2.4371e+06,2035
2.4371e+06,2044
2.4371e+06,2047
2.4371e+06,2040
2.4371e+06,2038
2.4371e+06,2041
2.4371e+06,2046
2.4371e+06,2047
2.4371e+06,2045
2.4371e+06,2041
2.4371e+06,2044
2.4371e+06,2045
2.4371e+06,2052
2.4371e+06,2050
2.4371e+06,2054
2.4371e+06,2053
2.4371e+06,2055
2.4371e+06,2062
2.4372e+06,2062
2.4372e+06,2059
2.4372e+06,2055
2.4372e+06,2063
2.4372e+06,2066
2.4372e+06,2070
2.4372e+06,2067
2.4372e+06,2077
2.4372e+06,2075
2.4372e+06,2080
2.4372e+06,2082
2.4372e+06,2081
2.4372e+06,2086
2.4372e+06,2098
2.4372e+06,2092
2.4372e+06,2097
2.4372e+06,2101
2.4372e+06,2095
2.4372e+06,2094
2.4372e+06,2099
2.4372e+06,2104
2.4372e+06,2102
2.4372e+06,2100
2.4372e+06,2098
2.4372e+06,2091
2.4372e+06,2082
2.4373e+06,2074
2.4373e+06,2069
2.4373e+06,2065
2.4373e+06,2063
2.4373e+06,2056
2.4373e+06,2049
2.4373e+06,2037
2.4373e+06,2043
2.4373e+06,2036
2.4373e+06,2039
2.4373e+06,2038
2.4373e+06,2031
2.4373e+06,2030
2.4373e+06,2035
2.4373e+06,2035
2.4373e+06,2032
2.4373e+06,2029
2.4373e+06,2025
2.4373e+06,2033
2.4373e+06,2032
2.4373e+06,2031
2.4373e+06,2030
2.4373e+06,2030
2.4373e+06,2031
2.4373e+06,2025
2.4373e+06,2029
2.4374e+06,2030
2.4374e+06,2029
2.4374e+06,2034
2.4374e+06,2033
2.4374e+06,2038
2.4374e+06,2033
2.4374e+06,2028
2.4374e+06,2031
2.4374e+06,2033
2.4374e+06,2037
2.4374e+06,2033
2.4374e+06,2032
2.4374e+06,2037
2.4374e+06,2038
2.4374e+06,2031
2.4374e+06,2031
2.4374e+06,2031
2.4374e+06,2031
2.4374e+06,2039
2.4374e+06,2031
2.4374e+06,2035
2.4374e+06,2031
2.4374e+06,2032
2.4374e+06,2029
2.4374e+06,2034
2.4375e+06,2033
2.4375e+06,2032
2.4375e+06,2031
2.4375e+06,2032
2.4375e+06,2039
2.4375e+06,2032
2.4375e+06,2028
2.4375e+06,2029
2.4375e+06,2038
2.4375e+06,2030
2.4375e+06,2030
2.4375e+06,2028
2.4375e+06,2031
2.4375e+06,2030
2.4375e+06,2031
2.4375e+06,2032
2.4375e+06,2030
2.4375e+06,2027
2.4375e+06,2027
2.4375e+06,2029
2.4375e+06,2033
2.4375e+06,2029
2.4375e+06,2026
2.4375e+06,2031
2.4375e+06,2027
2.4375e+06,2026
2.4376e+06,2031
2.4376e+06,2026
2.4376e+06,2023
2.4376e+06,2030
2.4376e+06,2031
2.4376e+06,2033
2.4376e+06,2029
2.4376e+06,2019
2.4376e+06,2037
2.4376e+06,2042
2.4376e+06,2035
2.4376e+06,2030
2.4376e+06,2045
2.4376e+06,2044
2.4376e+06,2049
2.4376e+06,2040
2.4376e+06,2047
2.4376e+06,2057
2.4376e+06,2059
2.4376e+06,2055
2.4376e+06,2055
2.4376e+06,2053
2.4376e+06,2056
2.4376e+06,2057
2.4376e+06,2057
2.4377e+06,2034
2.4377e+06,2031
2.4377e+06,2020
2.4377e+06,2032
2.4377e+06,2033
2.4377e+06,2032
2.4377e+06,2023
2.4377e+06,2023
2.4377e+06,2030
2.4377e+06,2023
2.4377e+06,2023
2.4377e+06,2022
2.4377e+06,2022
2.4377e+06,2028
2.4377e+06,2028
2.4377e+06,2029
2.4377e+06,2021
2.4377e+06,2020
2.4377e+06,2023
2.4377e+06,2024
2.4377e+06,2027
2.4377e+06,2018
2.4377e+06,2004
2.4377e+06,1999
2.4377e+06,2011
2.4377e+06,2041
2.4378e+06,2083
2.4378e+06,2155
2.4378e+06,2221
2.4378e+06,2270
2.4378e+06,2292
2.4378e+06,2267
2.4378e+06,2207
2.4378e+06,2150
2.4378e+06,2090
2.4378e+06,2048
2.4378e+06,2020
2.4378e+06,2020
2.4378e+06,2021
2.4378e+06,2030
2.4378e+06,2031
2.4378e+06,2033
2.4378e+06,2029
2.4378e+06,2023
2.4378e+06,2034
2.4378e+06,2035
2.4378e+06,2034
2.4378e+06,2030
2.4378e+06,2031
2.4378e+06,2035
2.4378e+06,2025
2.4378e+06,2032
2.4379e+06,2033
2.4379e+06,2028
2.4379e+06,2028
2.4379e+06,2033
2.4379e+06,2037
2.4379e+06,2031
2.4379e+06,2032
2.4379e+06,2034
2.4379e+06,2039
2.4379e+06,2043
2.4379e+06,2040
2.4379e+06,2038
2.4379e+06,2035
2.4379e+06,2047
2.4379e+06,2042
2.4379e+06,2043
2.4379e+06,2040
2.4379e+06,2045
2.4379e+06,2048
2.4379e+06,2049
2.4379e+06,2046
2.4379e+06,2045
2.4379e+06,2050
2.4379e+06,2052
2.4379e+06,2051
2.438e+06,2056
2.438e+06,2054
2.438e+06,2054
2.438e+06,2063
2.438e+06,2068
2.438e+06,2056
2.438e+06,2064
2.438e+06,2072
2.438e+06,2071
2.438e+06,2074
2.438e+06,2083
2.438e+06,2080
2.438e+06,2077
2.438e+06,2087
2.438e+06,2083
2.438e+06,2092
2.438e+06,2091
2.438e+06,2097
2.438e+06,2100
2.438e+06,2101
2.438e+06,2101
2.438e+06,2090
2.438e+06,2094
2.438e+06,2102
2.438e+06,2097
2.438e+06,2091
2.4381e+06,2088
2.4381e+06,2079
2.4381e+06,2078
2.4381e+06,2064
2.4381e+06,2066
2.4381e+06,2055
2.4381e+06,2046
2.4381e+06,2042
2.4381e+06,2044
2.4381e+06,2049
2.4381e+06,2048
2.4381e+06,2032
2.4381e+06,2036
2.4381e+06,2037
2.4381e+06,2036
2.4381e+06,2035
2.4381e+06,2031
2.4381e+06,2033
2.4381e+06,2039
2.4381e+06,2035
2.4381e+06,2026
2.4381e+06,2030
2.4381e+06,2033
2.4381e+06,2035
2.4381e+06,2034
2.4382e+06,2040
2.4382e+06,2033
2.4382e+06,2025
2.4382e+06,2031
2.4382e+06,2038
2.4382e+06,2037
2.4382e+06,2032
2.4382e+06,2040
2.4382e+06,2033
2.4382e+06,2038
2.4382e+06,2034
2.4382e+06,2036
2.4382e+06,2035
2.4382e+06,2041
2.4382e+06,2039
2.4382e+06,2037
2.4382e+06,2033
2.4382e+06,2032
2.4382e+06,2043
2.4382e+06,2041
2.4382e+06,2042
2.4382e+06,2033
2.4382e+06,2035
2.4382e+06,2039
2.4382e+06,2041
2.4382e+06,2040
2.4383e+06,2030
2.4383e+06,2032
2.4383e+06,2035
2.4383e+06,2040
2.4383e+06,2041
2.4383e+06,2035
2.4383e+06,2031
2.4383e+06,2035
2.4383e+06,2034
2.4383e+06,2038
2.4383e+06,2023
2.4383e+06,2030
2.4383e+06,2034
2.4383e+06,2035
2.4383e+06,2034
2.4383e+06,2035
2.4383e+06,2026
2.4383e+06,2031
2.4383e+06,2039
2.4383e+06,2041
2.4383e+06,2039
2.4383e+06,2037
2.4383e+06,2045
2.4383e+06,2044
2.4383e+06,2042
2.4383e+06,2047
2.4384e+06,2048
2.4384e+06,2052
2.4384e+06,2059
2.4384e+06,2064
2.4384e+06,2062
2.4384e+06,2056
2.4384e+06,2062
2.4384e+06,2060
2.4384e+06,2059
2.4384e+06,2060
2.4384e+06,2049
2.4384e+06,2043
2.4384e+06,2037
2.4384e+06,2037
2.4384e+06,2035
2.4384e+06,2030
2.4384e+06,2026
2.4384e+06,2023
2.4384e+06,2035
2.4384e+06,2033
2.4384e+06,2027
2.4384e+06,2034
2.4384e+06,2031
2.4384e+06,2031
2.4384e+06,2032
2.4385e+06,2031
2.4385e+06,2029
2.4385e+06,2030
2.4385e+06,2035
2.4385e+06,2036
2.4385e+06,2030
2.4385e+06,2019
2.4385e+06,2018
2.4385e+06,2009
2.4385e+06,2006
2.4385e+06,2022
2.4385e+06,2059
2.4385e+06,2119
2.4385e+06,2198
2.4385e+06,2249
2.4385e+06,2289
2.4385e+06,2293
2.4385e+06,2241
2.4385e+06,2187
2.4385e+06,2125
2.4385e+06,2083
2.4385e+06,2037
2.4385e+06,2023
2.4385e+06,2032
2.4385e+06,2039
2.4385e+06,2035
2.4386e+06,2039
2.4386e+06,2037
2.4386e+06,2041
2.4386e+06,2037
2.4386e+06,2035
2.4386e+06,2040
2.4386e+06,2038
2.4386e+06,2036
2.4386e+06,2035
2.4386e+06,2041
2.4386e+06,2037
2.4386e+06,2034
2.4386e+06,2038
2.4386e+06,2046
2.4386e+06,2041
2.4386e+06,2040
2.4386e+06,2039
2.4386e+06,2045
2.4386e+06,2044
2.4386e+06,2038
2.4386e+06,2041
2.4386e+06,2042
2.4386e+06,2047
2.4386e+06,2048
2.4386e+06,2050
2.4387e+06,2048
2.4387e+06,2047
2.4387e+06,2052
2.4387e+06,2049
2.4387e+06,2054
2.4387e+06,2056
2.4387e+06,2052
2.4387e+06,2043
2.4387e+06,2061
2.4387e+06,2059
2.4387e+06,2056
2.4387e+06,2057
2.4387e+06,2056
2.4387e+06,2064
2.4387e+06,2066
2.4387e+06,2073
2.4387e+06,2066
2.4387e+06,2075
2.4387e+06,2076
2.4387e+06,2074
2.4387e+06,2083
2.4387e+06,2079
2.4387e+06,2085
2.4387e+06,2086
2.4387e+06,2093
2.4387e+06,2093
2.4388e+06,2094
2.4388e+06,2099
2.4388e+06,2099
2.4388e+06,2110
2.4388e+06,2103
2.4388e+06,2103
2.4388e+06,2101
2.4388e+06,2104
2.4388e+06,2104
2.4388e+06,2101
2.4388e+06,2095
2.4388e+06,2090
2.4388e+06,2084
2.4388e+06,2084
2.4388e+06,2074
2.4388e+06,2072
2.4388e+06,2058
2.4388e+06,2054
2.4388e+06,2051
2.4388e+06,2055
2.4388e+06,2047
2.4388e+06,2039
2.4388e+06,2043
2.4388e+06,2042
2.4388e+06,2040
2.4388e+06,2036
2.4389e+06,2039
2.4389e+06,2036
2.4389e+06,2035
2.4389e+06,2042
2.4389e+06,2042
2.4389e+06,2037
2.4389e+06,2031
2.4389e+06,2036
2.4389e+06,2035
2.4389e+06,2037
2.4389e+06,2041
2.4389e+06,2036
2.4389e+06,2040
2.4389e+06,2042
2.4389e+06,2041
2.4389e+06,2038
2.4389e+06,2037
2.4389e+06,2042
2.4389e+06,2043
2.4389e+06,2045
2.4389e+06,2044
2.4389e+06,2042
2.4389e+06,2041
2.4389e+06,2040
2.4389e+06,2043
2.439e+06,2043
2.439e+06,2037
2.439e+06,2039
2.439e+06,2042
2.439e+06,2047
2.439e+06,2041
2.439e+06,2036
2.439e+06,2038
2.439e+06,2047
2.439e+06,2045
2.439e+06,2039
2.439e+06,2038
2.439e+06,2039
2.439e+06,2042
2.439e+06,2043
2.439e+06,2038
2.439e+06,2047
2.439e+06,2026
2.439e+06,2048
2.439e+06,2043
2.439e+06,2038
2.439e+06,2035
2.439e+06,2036
2.439e+06,2041
2.439e+06,2042
2.439e+06,2036
2.4391e+06,2038
2.4391e+06,2038
2.4391e+06,2031
2.4391e+06,2043
2.4391e+06,2038
2.4391e+06,2034
2.4391e+06,2037
2.4391e+06,2040
2.4391e+06,2035
2.4391e+06,2043
2.4391e+06,2037
2.4391e+06,2037
2.4391e+06,2039
2.4391e+06,2040
2.4391e+06,2047
2.4391e+06,2049
2.4391e+06,2047
2.4391e+06,2053
2.4391e+06,2056
2.4391e+06,2058
2.4391e+06,2059
2.4391e+06,2056
2.4391e+06,2061
2.4391e+06,2069
2.4391e+06,2068
2.4392e+06,2072
2.4392e+06,2067
2.4392e+06,2066
2.4392e+06,2058
2.4392e+06,2063
2.4392e+06,2058
2.4392e+06,2043
2.4392e+06,2038
2.4392e+06,2042
2.4392e+06,2038
2.4392e+06,2038
2.4392e+06,2032
2.4392e+06,2029
2.4392e+06,2029
2.4392e+06,2039
2.4392e+06,2035
2.4392e+06,2032
2.4392e+06,2030
2.4392e+06,2031
2.4392e+06,2033
2.4392e+06,2029
2.4392e+06,2030
2.4392e+06,2030
2.4392e+06,2033
2.4392e+06,2035
2.4392e+06,2033
2.4393e+06,2028
2.4393e+06,2013
2.4393e+06,2007
2.4393e+06,2007
2.4393e+06,2033
2.4393e+06,2072
2.4393e+06,2127
2.4393e+06,2199
2.4393e+06,2258
2.4393e+06,2297
2.4393e+06,2300
2.4393e+06,2244
2.4393e+06,2187
2.4393e+06,2125
2.4393e+06,2070
2.4393e+06,2036
2.4393e+06,2035
2.4393e+06,2039
2.4393e+06,2039
2.4393e+06,2049
2.4393e+06,2046
2.4393e+06,2038
2.4393e+06,2036
2.4393e+06,2041
2.4393e+06,2039
2.4393e+06,2036
2.4394e+06,2038
2.4394e+06,2037
2.4394e+06,2039
2.4394e+06,2043
2.4394e+06,2040
2.4394e+06,2037
2.4394e+06,2036
2.4394e+06,2037
2.4394e+06,2039
2.4394e+06,2041
2.4394e+06,2035
2.4394e+06,2041
2.4394e+06,2045
2.4394e+06,2047
2.4394e+06,2039
2.4394e+06,2041
2.4394e+06,2038
2.4394e+06,2044
2.4394e+06,2050
2.4394e+06,2054
2.4394e+06,2049
2.4394e+06,2052
2.4394e+06,2049
2.4394e+06,2053
2.4394e+06,2053
2.4395e+06,2053
2.4395e+06,2048
2.4395e+06,2055
2.4395e+06,2058
2.4395e+06,2059
2.4395e+06,2060
2.4395e+06,2058
2.4395e+06,2064
2.4395e+06,2065
2.4395e+06,2068
2.4395e+06,2065
2.4395e+06,2077
2.4395e+06,2075
2.4395e+06,2076
2.4395e+06,2084
2.4395e+06,2088
2.4395e+06,2083
2.4395e+06,2089
2.4395e+06,2093
2.4395e+06,2098
2.4395e+06,2098
2.4395e+06,2095
2.4395e+06,2098
2.4395e+06,2102
2.4395e+06,2106
2.4395e+06,2108
2.4396e+06,2105
2.4396e+06,2107
2.4396e+06,2105
2.4396e+06,2102
2.4396e+06,2099
2.4396e+06,2086
2.4396e+06,2085
2.4396e+06,2078
2.4396e+06,2079
2.4396e+06,2074
2.4396e+06,2061
2.4396e+06,2054
2.4396e+06,2052
2.4396e+06,2050
2.4396e+06,2049
2.4396e+06,2036
2.4396e+06,2040
2.4396e+06,2038
2.4396e+06,2043
2.4396e+06,2037
2.4396e+06,2033
2.4396e+06,2025
2.4396e+06,2032
2.4396e+06,2041
2.4396e+06,2040
2.4397e+06,2039
2.4397e+06,2038
2.4397e+06,2032
2.4397e+06,2031
2.4397e+06,2037
2.4397e+06,2038
2.4397e+06,2037
2.4397e+06,2035
2.4397e+06,2039
2.4397e+06,2042
2.4397e+06,2035
2.4397e+06,2039
2.4397e+06,2035
2.4397e+06,2039
2.4397e+06,2045
2.4397e+06,2039
2.4397e+06,2036
2.4397e+06,2035
2.4397e+06,2037
2.4397e+06,2045
2.4397e+06,2038
2.4397e+06,2035
2.4397e+06,2037
2.4397e+06,2041
2.4397e+06,2045
2.4397e+06,2042
2.4398e+06,2039
2.4398e+06,2038
2.4398e+06,2035
2.4398e+06,2043
2.4398e+06,2047
2.4398e+06,2041
2.4398e+06,2035
2.4398e+06,2040
2.4398e+06,2043
2.4398e+06,2042
2.4398e+06,2036
2.4398e+06,2039
2.4398e+06,2036
2.4398e+06,2042
2.4398e+06,2037
2.4398e+06,2041
2.4398e+06,2037
2.4398e+06,2036
2.4398e+06,2036
2.4398e+06,2040
2.4398e+06,2039
2.4398e+06,2039
2.4398e+06,2035
2.4398e+06,2042
2.4398e+06,2037
2.4398e+06,2035
2.4399e+06,2031
2.4399e+06,2037
2.4399e+06,2037
2.4399e+06,2039
2.4399e+06,2040
2.4399e+06,2039
2.4399e+06,2039
2.4399e+06,2035
2.4399e+06,2037
2.4399e+06,2038
2.4399e+06,2042
2.4399e+06,2047
2.4399e+06,2047
2.4399e+06,2048
2.4399e+06,2043
2.4399e+06,2048
2.4399e+06,2045
2.4399e+06,2056
2.4399e+06,2066
2.4399e+06,2064
2.4399e+06,2063
2.4399e+06,2062
2.4399e+06,2068
2.4399e+06,2070
2.4399e+06,2069
2.44e+06,2070
2.44e+06,2062
2.44e+06,2055
2.44e+06,2050
2.44e+06,2047
2.44e+06,2040
2.44e+06,2033
2.44e+06,2030
2.44e+06,2032
2.44e+06,2038
2.44e+06,2032
2.44e+06,2028
2.44e+06,2030
2.44e+06,2035
2.44e+06,2028
2.44e+06,2034
2.44e+06,2031
2.44e+06,2029
2.44e+06,2036
2.44e+06,2034
2.44e+06,2030
2.44e+06,2021
2.44e+06,2023
2.44e+06,2031
2.44e+06,2028
2.44e+06,2021
2.4401e+06,1994
2.4401e+06,2013
2.4401e+06,2042
2.4401e+06,2086
2.4401e+06,2151
2.4401e+06,2217
2.4401e+06,2264
2.4401e+06,2303
2.4401e+06,2289
2.4401e+06,2228
2.4401e+06,2160
2.4401e+06,2093
2.4401e+06,2043
2.4401e+06,2040
2.4401e+06,2038
2.4401e+06,2039
2.4401e+06,2038
2.4401e+06,2043
2.4401e+06,2039
2.4401e+06,2037
2.4401e+06,2037
2.4401e+06,2035
2.4401e+06,2033
2.4401e+06,2039
2.4401e+06,2037
2.4402e+06,2032
2.4402e+06,2036
2.4402e+06,2034
2.4402e+06,2039
2.4402e+06,2038
2.4402e+06,2039
2.4402e+06,2040
2.4402e+06,2038
2.4402e+06,2038
2.4402e+06,2043
2.4402e+06,2044
2.4402e+06,2042
2.4402e+06,2036
2.4402e+06,2049
2.4402e+06,2047
2.4402e+06,2047
2.4402e+06,2033
2.4402e+06,2044
2.4402e+06,2048
2.4402e+06,2044
2.4402e+06,2050
2.4402e+06,2041
2.4402e+06,2048
2.4402e+06,2050
2.4402e+06,2060
2.4402e+06,2060
2.4403e+06,2054
2.4403e+06,2060
2.4403e+06,2056
2.4403e+06,2067
2.4403e+06,2066
2.4403e+06,2063
2.4403e+06,2069
2.4403e+06,2070
2.4403e+06,2071
2.4403e+06,2074
2.4403e+06,2076
2.4403e+06,2074
2.4403e+06,2077
2.4403e+06,2091
2.4403e+06,2101
2.4403e+06,2097
2.4403e+06,2095
2.4403e+06,2096
2.4403e+06,2098
2.4403e+06,2107
2.4403e+06,2102
2.4403e+06,2101
2.4403e+06,2102
2.4403e+06,2112
2.4403e+06,2110
2.4403e+06,2105
2.4404e+06,2101
2.4404e+06,2103
2.4404e+06,2102
2.4404e+06,2099
2.4404e+06,2090
2.4404e+06,2078
2.4404e+06,2068
2.4404e+06,2064
2.4404e+06,2056
2.4404e+06,2061
2.4404e+06,2054
2.4404e+06,2046
2.4404e+06,2049
2.4404e+06,2048
2.4404e+06,2041
2.4404e+06,2040
2.4404e+06,2036
2.4404e+06,2037
2.4404e+06,2047
2.4404e+06,2037
2.4404e+06,2033
2.4404e+06,2030
2.4404e+06,2032
2.4404e+06,2043
2.4404e+06,2043
2.4405e+06,2043
2.4405e+06,2031
2.4405e+06,2038
2.4405e+06,2047
2.4405e+06,2035
2.4405e+06,2045
2.4405e+06,2036
2.4405e+06,2041
2.4405e+06,2045
2.4405e+06,2041
2.4405e+06,2043
2.4405e+06,2041
2.4405e+06,2039
2.4405e+06,2045
2.4405e+06,2044
2.4405e+06,2041
2.4405e+06,2041
2.4405e+06,2041
2.4405e+06,2047
2.4405e+06,2047
2.4405e+06,2045
2.4405e+06,2044
2.4405e+06,2035
2.4405e+06,2041
2.4405e+06,2050
2.4405e+06,2041
2.4406e+06,2038
2.4406e+06,2048
2.4406e+06,2047
2.4406e+06,2046
2.4406e+06,2045
2.4406e+06,2042
2.4406e+06,2039
2.4406e+06,2044
2.4406e+06,2045
2.4406e+06,2045
2.4406e+06,2041
2.4406e+06,2040
2.4406e+06,2041
2.4406e+06,2044
2.4406e+06,2041
2.4406e+06,2043
2.4406e+06,2038
2.4406e+06,2041
2.4406e+06,2047
2.4406e+06,2048
2.4406e+06,2040
2.4406e+06,2030
2.4406e+06,2043
2.4406e+06,2046
2.4406e+06,2046
2.4407e+06,2043
2.4407e+06,2037
2.4407e+06,2040
2.4407e+06,2042
2.4407e+06,2046
2.4407e+06,2046
2.4407e+06,2042
2.4407e+06,2040
2.4407e+06,2042
2.4407e+06,2044
2.4407e+06,2039
2.4407e+06,2038
2.4407e+06,2038
2.4407e+06,2048
2.4407e+06,2053
2.4407e+06,2050
2.4407e+06,2050
2.4407e+06,2059
2.4407e+06,2055
2.4407e+06,2056
2.4407e+06,2048
2.4407e+06,2065
2.4407e+06,2068
2.4407e+06,2073
2.4407e+06,2080
2.4407e+06,2078
2.4408e+06,2079
2.4408e+06,2075
2.4408e+06,2077
2.4408e+06,2075
2.4408e+06,2060
2.4408e+06,2056
2.4408e+06,2045
2.4408e+06,2047
2.4408e+06,2046
2.4408e+06,2043
2.4408e+06,2040
2.4408e+06,2044
2.4408e+06,2042
2.4408e+06,2046
2.4408e+06,2044
2.4408e+06,2046
2.4408e+06,2040
2.4408e+06,2042
2.4408e+06,2037
2.4408e+06,2047
2.4408e+06,2044
2.4408e+06,2034
2.4408e+06,2040
2.4408e+06,2046
2.4408e+06,2041
2.4408e+06,2043
2.4409e+06,2031
2.4409e+06,2023
2.4409e+06,2011
2.4409e+06,2027
2.4409e+06,2058
2.4409e+06,2096
2.4409e+06,2173
2.4409e+06,2235
2.4409e+06,2287
2.4409e+06,2332
2.4409e+06,2290
2.4409e+06,2224
2.4409e+06,2164
2.4409e+06,2106
2.4409e+06,2062
2.4409e+06,2042
2.4409e+06,2037
2.4409e+06,2045
2.4409e+06,2048
2.4409e+06,2049
2.4409e+06,2053
2.4409e+06,2048
2.4409e+06,2046
2.4409e+06,2054
2.4409e+06,2048
2.441e+06,2051
2.441e+06,2046
2.441e+06,2048
2.441e+06,2051
2.441e+06,2052
2.441e+06,2049
2.441e+06,2045
2.441e+06,2048
2.441e+06,2053
2.441e+06,2057
2.441e+06,2050
2.441e+06,2048
2.441e+06,2051
2.441e+06,2055
2.441e+06,2052
2.441e+06,2058
2.441e+06,2048
2.441e+06,2056
2.441e+06,2056
2.441e+06,2062
2.441e+06,2060
2.441e+06,2055
2.441e+06,2051
2.441e+06,2058
2.441e+06,2065
2.441e+06,2063
2.4411e+06,2060
2.4411e+06,2061
2.4411e+06,2064
2.4411e+06,2067
2.4411e+06,2071
2.4411e+06,2064
2.4411e+06,2069
2.4411e+06,2077
2.4411e+06,2075
2.4411e+06,2077
2.4411e+06,2083
2.4411e+06,2080
2.4411e+06,2077
2.4411e+06,2092
2.4411e+06,2093
2.4411e+06,2094
2.4411e+06,2090
2.4411e+06,2101
2.4411e+06,2106
2.4411e+06,2108
2.4411e+06,2105
2.4411e+06,2104
2.4411e+06,2108
2.4411e+06,2117
2.4411e+06,2115
2.4412e+06,2113
2.4412e+06,2113
2.4412e+06,2105
2.4412e+06,2107
2.4412e+06,2113
2.4412e+06,2114
2.4412e+06,2096
2.4412e+06,2092
2.4412e+06,2089
2.4412e+06,2085
2.4412e+06,2082
2.4412e+06,2066
2.4412e+06,2063
2.4412e+06,2059
2.4412e+06,2057
2.4412e+06,2054
2.4412e+06,2051
2.4412e+06,2049
2.4412e+06,2051
2.4412e+06,2051
2.4412e+06,2048
2.4412e+06,2051
2.4412e+06,2047
2.4412e+06,2045
2.4412e+06,2048
2.4412e+06,2044
2.4413e+06,2044
2.4413e+06,2033
2.4413e+06,2049
2.4413e+06,2049
2.4413e+06,2051
2.4413e+06,2041
2.4413e+06,2043
2.4413e+06,2046
2.4413e+06,2049
2.4413e+06,2047
2.4413e+06,2044
2.4413e+06,2047
2.4413e+06,2045
2.4413e+06,2049
2.4413e+06,2057
2.4413e+06,2050
2.4413e+06,2045
2.4413e+06,2047
2.4413e+06,2045
2.4413e+06,2052
2.4413e+06,2039
2.4413e+06,2045
2.4413e+06,2043
2.4413e+06,2052
2.4413e+06,2049
2.4413e+06,2044
2.4414e+06,2044
2.4414e+06,2049
2.4414e+06,2048
2.4414e+06,2043
2.4414e+06,2051
2.4414e+06,2049
2.4414e+06,2041
2.4414e+06,2043
2.4414e+06,2052
2.4414e+06,2050
2.4414e+06,2050
2.4414e+06,2044
2.4414e+06,2048
2.4414e+06,2050
2.4414e+06,2049
2.4414e+06,2048
2.4414e+06,2040
2.4414e+06,2046
2.4414e+06,2044
2.4414e+06,2046
2.4414e+06,2045
2.4414e+06,2043
2.4414e+06,2040
2.4414e+06,2043
2.4414e+06,2045
2.4415e+06,2046
2.4415e+06,2048
2.4415e+06,2056
2.4415e+06,2049
2.4415e+06,2054
2.4415e+06,2058
2.4415e+06,2050
2.4415e+06,2056
2.4415e+06,2061
2.4415e+06,2067
2.4415e+06,2070
2.4415e+06,2070
2.4415e+06,2071
2.4415e+06,2071
2.4415e+06,2071
2.4415e+06,2070
2.4415e+06,2069
2.4415e+06,2075
2.4415e+06,2061
2.4415e+06,2061
2.4415e+06,2049
2.4415e+06,2043
2.4415e+06,2043
2.4415e+06,2042
2.4415e+06,2047
2.4415e+06,2045
2.4416e+06,2045
2.4416e+06,2037
2.4416e+06,2036
2.4416e+06,2042
2.4416e+06,2038
2.4416e+06,2036
2.4416e+06,2037
2.4416e+06,2039
2.4416e+06,2039
2.4416e+06,2041
2.4416e+06,2030
2.4416e+06,2039
2.4416e+06,2039
2.4416e+06,2030
2.4416e+06,2039
2.4416e+06,2030
2.4416e+06,2007
2.4416e+06,2013
2.4416e+06,2031
2.4416e+06,2063
2.4416e+06,2120
2.4416e+06,2196
2.4416e+06,2264
2.4416e+06,2300
2.4416e+06,2311
2.4417e+06,2243
2.4417e+06,2194
2.4417e+06,2128
2.4417e+06,2075
2.4417e+06,2047
2.4417e+06,2025
2.4417e+06,2030
2.4417e+06,2025
2.4417e+06,2039
2.4417e+06,2042
2.4417e+06,2046
2.4417e+06,2038
2.4417e+06,2040
2.4417e+06,2041
2.4417e+06,2043
2.4417e+06,2042
2.4417e+06,2041
2.4417e+06,2042
2.4417e+06,2044
2.4417e+06,2046
2.4417e+06,2043
2.4417e+06,2040
2.4417e+06,2035
2.4417e+06,2039
2.4417e+06,2052
2.4417e+06,2047
2.4418e+06,2044
2.4418e+06,2039
2.4418e+06,2042
2.4418e+06,2048
2.4418e+06,2050
2.4418e+06,2045
2.4418e+06,2041
2.4418e+06,2056
2.4418e+06,2052
2.4418e+06,2052
2.4418e+06,2048
2.4418e+06,2050
2.4418e+06,2050
2.4418e+06,2050
2.4418e+06,2062
2.4418e+06,2059
2.4418e+06,2054
2.4418e+06,2055
2.4418e+06,2065
2.4418e+06,2062
2.4418e+06,2069
2.4418e+06,2060
2.4418e+06,2066
2.4418e+06,2074
2.4418e+06,2072
2.4418e+06,2074
2.4419e+06,2071
2.4419e+06,2077
2.4419e+06,2081
2.4419e+06,2087
2.4419e+06,2085
2.4419e+06,2088
2.4419e+06,2092
2.4419e+06,2094
2.4419e+06,2091
2.4419e+06,2104
2.4419e+06,2100
2.4419e+06,2099
2.4419e+06,2104
2.4419e+06,2106
2.4419e+06,2108
2.4419e+06,2101
2.4419e+06,2099
2.4419e+06,2097
2.4419e+06,2098
2.4419e+06,2092
2.4419e+06,2082
2.4419e+06,2075
2.4419e+06,2072
2.4419e+06,2066
2.4419e+06,2062
2.442e+06,2057
2.442e+06,2051
2.442e+06,2046
2.442e+06,2046
2.442e+06,2053
2.442e+06,2044
2.442e+06,2032
2.442e+06,2033
2.442e+06,2044
2.442e+06,2040
2.442e+06,2036
2.442e+06,2029
2.442e+06,2034
2.442e+06,2035
2.442e+06,2039
2.442e+06,2035
2.442e+06,2033
2.442e+06,2033
2.442e+06,2036
2.442e+06,2041
2.442e+06,2041
2.442e+06,2034
2.442e+06,2031
2.442e+06,2033
2.442e+06,2042
2.442e+06,2035
2.4421e+06,2041
2.4421e+06,2038
2.4421e+06,2035
2.4421e+06,2040
2.4421e+06,2037
2.4421e+06,2035
2.4421e+06,2035
2.4421e+06,2038
2.4421e+06,2045
2.4421e+06,2047
2.4421e+06,2033
2.4421e+06,2037
2.4421e+06,2037
2.4421e+06,2041
2.4421e+06,2040
2.4421e+06,2036
2.4421e+06,2033
2.4421e+06,2036
2.4421e+06,2042
2.4421e+06,2040
2.4421e+06,2038
2.4421e+06,2034
2.4421e+06,2036
2.4421e+06,2031
2.4421e+06,2039
2.4422e+06,2040
2.4422e+06,2032
2.4422e+06,2042
2.4422e+06,2034
2.4422e+06,2039
2.4422e+06,2034
2.4422e+06,2030
2.4422e+06,2022
2.4422e+06,2035
2.4422e+06,2033
2.4422e+06,2035
2.4422e+06,2029
2.4422e+06,2029
2.4422e+06,2035
2.4422e+06,2032
2.4422e+06,2036
2.4422e+06,2035
2.4422e+06,2038
2.4422e+06,2044
2.4422e+06,2044
2.4422e+06,2043
2.4422e+06,2042
2.4422e+06,2045
2.4422e+06,2048
2.4422e+06,2059
2.4422e+06,2070
2.4423e+06,2056
2.4423e+06,2057
2.4423e+06,2064
2.4423e+06,2065
2.4423e+06,2067
2.4423e+06,2066
2.4423e+06,2057
2.4423e+06,2050
2.4423e+06,2053
2.4423e+06,2036
2.4423e+06,2032
2.4423e+06,2026
2.4423e+06,2035
2.4423e+06,2032
2.4423e+06,2038
2.4423e+06,2025
2.4423e+06,2027
2.4423e+06,2023
2.4423e+06,2030
2.4423e+06,2030
2.4423e+06,2030
2.4423e+06,2023
2.4423e+06,2024
2.4423e+06,2028
2.4423e+06,2032
2.4423e+06,2030
2.4424e+06,2025
2.4424e+06,2022
2.4424e+06,2031
2.4424e+06,2027
2.4424e+06,2018
2.4424e+06,2002
2.4424e+06,2006
2.4424e+06,2020
2.4424e+06,2065
2.4424e+06,2120
2.4424e+06,2189
2.4424e+06,2244
2.4424e+06,2282
2.4424e+06,2296
2.4424e+06,2248
2.4424e+06,2178
2.4424e+06,2111
2.4424e+06,2056
2.4424e+06,2033
2.4424e+06,2025
2.4424e+06,2024
2.4424e+06,2033
2.4424e+06,2031
2.4424e+06,2038
2.4424e+06,2037
2.4425e+06,2033
2.4425e+06,2030
2.4425e+06,2030
2.4425e+06,2033
2.4425e+06,2038
2.4425e+06,2027
2.4425e+06,2025
2.4425e+06,2029
2.4425e+06,2031
2.4425e+06,2040
2.4425e+06,2032
2.4425e+06,2033
2.4425e+06,2033
2.4425e+06,2033
2.4425e+06,2037
2.4425e+06,2034
2.4425e+06,2025
2.4425e+06,2038
2.4425e+06,2038
2.4425e+06,2041
2.4425e+06,2039
2.4425e+06,2035
2.4425e+06,2039
2.4425e+06,2042
2.4425e+06,2047
2.4425e+06,2048
2.4426e+06,2041
2.4426e+06,2044
2.4426e+06,2047
2.4426e+06,2052
2.4426e+06,2045
2.4426e+06,2047
2.4426e+06,2048
2.4426e+06,2044
2.4426e+06,2056
2.4426e+06,2053
2.4426e+06,2059
2.4426e+06,2058
2.4426e+06,2061
2.4426e+06,2062
2.4426e+06,2066
2.4426e+06,2070
2.4426e+06,2063
2.4426e+06,2072
2.4426e+06,2079
2.4426e+06,2083
2.4426e+06,2080
2.4426e+06,2076
2.4426e+06,2087
2.4426e+06,2091
2.4426e+06,2092
2.4427e+06,2095
2.4427e+06,2092
2.4427e+06,2096
2.4427e+06,2099
2.4427e+06,2095
2.4427e+06,2104
2.4427e+06,2096
2.4427e+06,2090
2.4427e+06,2091
2.4427e+06,2085
2.4427e+06,2080
2.4427e+06,2058
2.4427e+06,2066
2.4427e+06,2061
2.4427e+06,2063
2.4427e+06,2043
2.4427e+06,2044
2.4427e+06,2041
2.4427e+06,2036
2.4427e+06,2040
2.4427e+06,2037
2.4427e+06,2024
2.4427e+06,2028
2.4427e+06,2030
2.4427e+06,2031
2.4427e+06,2031
2.4428e+06,2026
2.4428e+06,2022
2.4428e+06,2023
2.4428e+06,2032
2.4428e+06,2030
2.4428e+06,2029
2.4428e+06,2029
2.4428e+06,2031
2.4428e+06,2032
2.4428e+06,2027
2.4428e+06,2024
2.4428e+06,2025
2.4428e+06,2031
2.4428e+06,2031
2.4428e+06,2036
2.4428e+06,2031
2.4428e+06,2029
2.4428e+06,2025
2.4428e+06,2027
2.4428e+06,2037
2.4428e+06,2035
2.4428e+06,2031
2.4428e+06,2031
2.4428e+06,2035
2.4428e+06,2034
2.4428e+06,2030
2.4429e+06,2028
2.4429e+06,2035
2.4429e+06,2036
2.4429e+06,2031
2.4429e+06,2034
2.4429e+06,2035
2.4429e+06,2026
2.4429e+06,2033
2.4429e+06,2035
2.4429e+06,2029
2.4429e+06,2025
2.4429e+06,2027
2.4429e+06,2031
2.4429e+06,2033
2.4429e+06,2036
2.4429e+06,2041
2.4429e+06,2029
2.4429e+06,2033
2.4429e+06,2035
2.4429e+06,2039
2.4429e+06,2030
2.4429e+06,2031
2.4429e+06,2030
2.4429e+06,2034
2.4429e+06,2026
2.443e+06,2030
2.443e+06,2023
2.443e+06,2028
2.443e+06,2028
2.443e+06,2033
2.443e+06,2031
2.443e+06,2029
2.443e+06,2027
2.443e+06,2031
2.443e+06,2027
2.443e+06,2029
2.443e+06,2029
2.443e+06,2022
2.443e+06,2040
2.443e+06,2032
2.443e+06,2028
2.443e+06,2030
2.443e+06,2029
2.443e+06,2021
2.443e+06,2038
2.443e+06,2034
2.443e+06,2039
2.443e+06,2037
2.443e+06,2041
2.443e+06,2043
2.443e+06,2048
2.4431e+06,2050
2.4431e+06,2052
2.4431e+06,2056
2.4431e+06,2067
2.4431e+06,2055
2.4431e+06,2057
2.4431e+06,2057
2.4431e+06,2061
2.4431e+06,2057
2.4431e+06,2049
2.4431e+06,2045
2.4431e+06,2038
2.4431e+06,2032
2.4431e+06,2028
2.4431e+06,2035
2.4431e+06,2018
2.4431e+06,2020
2.4431e+06,2027
2.4431e+06,2027
2.4431e+06,2026
2.4431e+06,2022
2.4431e+06,2022
2.4431e+06,2028
2.4431e+06,2025
2.4431e+06,2024
2.4432e+06,2023
2.4432e+06,2020
2.4432e+06,2022
2.4432e+06,2025
2.4432e+06,2026
2.4432e+06,2023
2.4432e+06,2011
2.4432e+06,2010
2.4432e+06,2006
2.4432e+06,2006
2.4432e+06,2013
2.4432e+06,2056
2.4432e+06,2114
2.4432e+06,2187
2.4432e+06,2250
2.4432e+06,2284
2.4432e+06,2290
2.4432e+06,2240
2.4432e+06,2181
2.4432e+06,2111
2.4432e+06,2054
2.4432e+06,2031
2.4432e+06,2027
2.4432e+06,2032
2.4432e+06,2032
2.4432e+06,2041
2.4433e+06,2035
2.4433e+06,2023
2.4433e+06,2031
2.4433e+06,2037
2.4433e+06,2030
2.4433e+06,2024
2.4433e+06,2023
2.4433e+06,2026
2.4433e+06,2028
2.4433e+06,2033
2.4433e+06,2024
2.4433e+06,2026
2.4433e+06,2029
2.4433e+06,2032
2.4433e+06,2033
2.4433e+06,2032
2.4433e+06,2025
2.4433e+06,2027
2.4433e+06,2025
2.4433e+06,2034
2.4433e+06,2032
2.4433e+06,2034
2.4433e+06,2032
2.4433e+06,2043
2.4433e+06,2040
2.4433e+06,2038
2.4434e+06,2036
2.4434e+06,2041
2.4434e+06,2037
2.4434e+06,2048
2.4434e+06,2033
2.4434e+06,2040
2.4434e+06,2043
2.4434e+06,2050
2.4434e+06,2049
2.4434e+06,2045
2.4434e+06,2052
2.4434e+06,2050
2.4434e+06,2054
2.4434e+06,2064
2.4434e+06,2060
2.4434e+06,2059
2.4434e+06,2057
2.4434e+06,2064
2.4434e+06,2068
2.4434e+06,2071
2.4434e+06,2070
2.4434e+06,2074
2.4434e+06,2081
2.4434e+06,2087
2.4434e+06,2086
2.4435e+06,2088
2.4435e+06,2090
2.4435e+06,2089
2.4435e+06,2092
2.4435e+06,2100
2.4435e+06,2095
2.4435e+06,2097
2.4435e+06,2093
2.4435e+06,2098
2.4435e+06,2095
2.4435e+06,2085
2.4435e+06,2083
2.4435e+06,2073
2.4435e+06,2076
2.4435e+06,2064
2.4435e+06,2057
2.4435e+06,2054
2.4435e+06,2047
2.4435e+06,2047
2.4435e+06,2043
2.4435e+06,2038
2.4435e+06,2035
2.4435e+06,2027
2.4435e+06,2025
2.4435e+06,2036
2.4435e+06,2023
2.4436e+06,2024
2.4436e+06,2023
2.4436e+06,2027
2.4436e+06,2030
2.4436e+06,2026
2.4436e+06,2024
2.4436e+06,2025
2.4436e+06,2030
2.4436e+06,2032
2.4436e+06,2022
2.4436e+06,2026
2.4436e+06,2030
2.4436e+06,2027
2.4436e+06,2031
2.4436e+06,2027
2.4436e+06,2021
2.4436e+06,2031
2.4436e+06,2029
2.4436e+06,2026
2.4436e+06,2033
2.4436e+06,2027
2.4436e+06,2024
2.4436e+06,2026
2.4436e+06,2035
2.4436e+06,2034
2.4437e+06,2034
2.4437e+06,2028
2.4437e+06,2033
2.4437e+06,2031
2.4437e+06,2035
2.4437e+06,2034
2.4437e+06,2029
2.4437e+06,2031
2.4437e+06,2032
2.4437e+06,2029
2.4437e+06,2031
2.4437e+06,2031
2.4437e+06,2028
2.4437e+06,2031
2.4437e+06,2027
2.4437e+06,2034
2.4437e+06,2027
2.4437e+06,2027
2.4437e+06,2028
2.4437e+06,2037
2.4437e+06,2028
2.4437e+06,2029
2.4437e+06,2026
2.4437e+06,2033
2.4437e+06,2039
2.4437e+06,2033
2.4438e+06,2026
2.4438e+06,2023
2.4438e+06,2029
2.4438e+06,2032
2.4438e+06,2033
2.4438e+06,2028
2.4438e+06,2031
2.4438e+06,2030
2.4438e+06,2035
2.4438e+06,2032
2.4438e+06,2029
2.4438e+06,2023
2.4438e+06,2035
2.4438e+06,2031
2.4438e+06,2035
2.4438e+06,2029
2.4438e+06,2032
2.4438e+06,2027
2.4438e+06,2033
2.4438e+06,2039
2.4438e+06,2028
2.4438e+06,2029
2.4438e+06,2032
2.4438e+06,2029
2.4438e+06,2033
2.4438e+06,2025
2.4439e+06,2030
2.4439e+06,2023
2.4439e+06,2029
2.4439e+06,2039
2.4439e+06,2036
2.4439e+06,2031
2.4439e+06,2032
2.4439e+06,2037
2.4439e+06,2035
2.4439e+06,2037
2.4439e+06,2048
2.4439e+06,2041
2.4439e+06,2047
2.4439e+06,2054
2.4439e+06,2057
2.4439e+06,2049
2.4439e+06,2058
2.4439e+06,2057
2.4439e+06,2064
2.4439e+06,2062
2.4439e+06,2060
2.4439e+06,2059
2.4439e+06,2056
2.4439e+06,2046
2.4439e+06,2035
2.444e+06,2026
2.444e+06,2031
2.444e+06,2028
2.444e+06,2027
2.444e+06,2036
2.444e+06,2026
2.444e+06,2027
2.444e+06,2021
2.444e+06,2032
2.444e+06,2029
2.444e+06,2028
2.444e+06,2026
2.444e+06,2024
2.444e+06,2034
2.444e+06,2029
2.444e+06,2023
2.444e+06,2020
2.444e+06,2025
2.444e+06,2025
2.444e+06,2027
2.444e+06,2015
2.444e+06,1996
2.444e+06,2000
2.444e+06,2017
2.444e+06,2068
2.444e+06,2117
2.4441e+06,2192
2.4441e+06,2246
2.4441e+06,2285
2.4441e+06,2295
2.4441e+06,2245
2.4441e+06,2178
2.4441e+06,2116
2.4441e+06,2061
2.4441e+06,2032
2.4441e+06,2035
2.4441e+06,2029
2.4441e+06,2029
2.4441e+06,2039
2.4441e+06,2036
2.4441e+06,2037
2.4441e+06,2035
2.4441e+06,2026
2.4441e+06,2029
2.4441e+06,2041
2.4441e+06,2033
2.4441e+06,2029
2.4441e+06,2028
2.4441e+06,2022
2.4441e+06,2035
2.4441e+06,2030
2.4442e+06,2032
2.4442e+06,2037
2.4442e+06,2039
2.4442e+06,2038
2.4442e+06,2042
2.4442e+06,2038
2.4442e+06,2032
2.4442e+06,2040
2.4442e+06,2039
2.4442e+06,2037
2.4442e+06,2034
2.4442e+06,2032
2.4442e+06,2035
2.4442e+06,2046
2.4442e+06,2047
2.4442e+06,2045
2.4442e+06,2041
2.4442e+06,2035
2.4442e+06,2052
2.4442e+06,2050
2.4442e+06,2048
2.4442e+06,2053
2.4442e+06,2049
2.4442e+06,2053
2.4442e+06,2061
2.4442e+06,2059
2.4443e+06,2059
2.4443e+06,2055
2.4443e+06,2054
2.4443e+06,2069
2.4443e+06,2069
2.4443e+06,2066
2.4443e+06,2075
2.4443e+06,2078
2.4443e+06,2081
2.4443e+06,2082
2.4443e+06,2075
2.4443e+06,2091
2.4443e+06,2081
2.4443e+06,2094
2.4443e+06,2099
2.4443e+06,2096
2.4443e+06,2098
2.4443e+06,2099
2.4443e+06,2099
2.4443e+06,2097
2.4443e+06,2095
2.4443e+06,2102
2.4443e+06,2101
2.4443e+06,2093
2.4443e+06,2097
2.4443e+06,2082
2.4444e+06,2078
2.4444e+06,2071
2.4444e+06,2066
2.4444e+06,2062
2.4444e+06,2053
2.4444e+06,2051
2.4444e+06,2046
2.4444e+06,2051
2.4444e+06,2042
2.4444e+06,2039
2.4444e+06,2036
2.4444e+06,2031
2.4444e+06,2035
2.4444e+06,2036
2.4444e+06,2030
2.4444e+06,2029
2.4444e+06,2030
2.4444e+06,2027
2.4444e+06,2036
2.4444e+06,2036
2.4444e+06,2029
2.4444e+06,2030
2.4444e+06,2033
2.4444e+06,2032
2.4444e+06,2028
2.4445e+06,2031
2.4445e+06,2030
2.4445e+06,2032
2.4445e+06,2032
2.4445e+06,2034
2.4445e+06,2029
2.4445e+06,2025
2.4445e+06,2031
2.4445e+06,2031
2.4445e+06,2033
2.4445e+06,2031
2.4445e+06,2038
2.4445e+06,2027
2.4445e+06,2041
2.4445e+06,2038
2.4445e+06,2038
2.4445e+06,2031
2.4445e+06,2036
2.4445e+06,2036
2.4445e+06,2043
2.4445e+06,2033
2.4445e+06,2037
2.4445e+06,2034
2.4445e+06,2035
2.4445e+06,2032
2.4445e+06,2038
2.4446e+06,2036
2.4446e+06,2030
2.4446e+06,2037
2.4446e+06,2037
2.4446e+06,2035
2.4446e+06,2030
2.4446e+06,2028
2.4446e+06,2035
2.4446e+06,2038
2.4446e+06,2039
2.4446e+06,2035
2.4446e+06,2031
2.4446e+06,2029
2.4446e+06,2031
2.4446e+06,2034
2.4446e+06,2030
2.4446e+06,2031
2.4446e+06,2033
2.4446e+06,2028
2.4446e+06,2037
2.4446e+06,2028
2.4446e+06,2030
2.4446e+06,2034
2.4446e+06,2033
2.4446e+06,2035
2.4447e+06,2032
2.4447e+06,2028
2.4447e+06,2033
2.4447e+06,2032
2.4447e+06,2033
2.4447e+06,2031
2.4447e+06,2031
2.4447e+06,2032
2.4447e+06,2034
2.4447e+06,2037
2.4447e+06,2044
2.4447e+06,2035
2.4447e+06,2037
2.4447e+06,2044
2.4447e+06,2047
2.4447e+06,2045
2.4447e+06,2052
2.4447e+06,2058
2.4447e+06,2059
2.4447e+06,2063
2.4447e+06,2061
2.4447e+06,2062
2.4447e+06,2061
2.4447e+06,2070
2.4447e+06,2066
2.4447e+06,2063
2.4448e+06,2054
2.4448e+06,2045
2.4448e+06,2030
2.4448e+06,2032
2.4448e+06,2028
2.4448e+06,2030
2.4448e+06,2031
2.4448e+06,2031
2.4448e+06,2031
2.4448e+06,2031
2.4448e+06,2031
2.4448e+06,2011
2.4448e+06,2025
2.4448e+06,2031
2.4448e+06,2032
2.4448e+06,2023
2.4448e+06,2028
2.4448e+06,2025
2.4448e+06,2030
2.4448e+06,2027
2.4448e+06,2031
2.4448e+06,2028
2.4448e+06,2014
2.4448e+06,2010
2.4448e+06,2005
2.4448e+06,2015
2.4449e+06,2051
2.4449e+06,2103
2.4449e+06,2178
2.4449e+06,2244
2.4449e+06,2279
2.4449e+06,2298
2.4449e+06,2245
2.4449e+06,2196
2.4449e+06,2128
2.4449e+06,2085
2.4449e+06,2045
2.4449e+06,2021
2.4449e+06,2026
2.4449e+06,2031
2.4449e+06,2031
2.4449e+06,2034
2.4449e+06,2032
2.4449e+06,2038
2.4449e+06,2036
2.4449e+06,2039
2.4449e+06,2035
2.4449e+06,2036
2.4449e+06,2032
2.4449e+06,2033
2.4449e+06,2035
2.445e+06,2032
2.445e+06,2031
2.445e+06,2035
2.445e+06,2037
2.445e+06,2038
2.445e+06,2035
2.445e+06,2033
2.445e+06,2039
2.445e+06,2039
2.445e+06,2043
2.445e+06,2042
2.445e+06,2037
2.445e+06,2040
2.445e+06,2039
2.445e+06,2049
2.445e+06,2041
2.445e+06,2041
2.445e+06,2042
2.445e+06,2044
2.445e+06,2048
2.445e+06,2047
2.445e+06,2055
2.445e+06,2043
2.445e+06,2058
2.445e+06,2057
2.445e+06,2057
2.4451e+06,2055
2.4451e+06,2053
2.4451e+06,2058
2.4451e+06,2070
2.4451e+06,2063
2.4451e+06,2062
2.4451e+06,2063
2.4451e+06,2073
2.4451e+06,2077
2.4451e+06,2071
2.4451e+06,2079
2.4451e+06,2075
2.4451e+06,2078
2.4451e+06,2085
2.4451e+06,2089
2.4451e+06,2091
2.4451e+06,2093
2.4451e+06,2091
2.4451e+06,2104
2.4451e+06,2098
2.4451e+06,2101
2.4451e+06,2095
2.4451e+06,2096
2.4451e+06,2103
2.4451e+06,2099
2.4452e+06,2094
2.4452e+06,2085
2.4452e+06,2082
2.4452e+06,2082
2.4452e+06,2074
2.4452e+06,2066
2.4452e+06,2056
2.4452e+06,2057
2.4452e+06,2046
2.4452e+06,2053
2.4452e+06,2045
2.4452e+06,2041
2.4452e+06,2032
2.4452e+06,2043
2.4452e+06,2040
2.4452e+06,2036
2.4452e+06,2035
2.4452e+06,2036
2.4452e+06,2030
2.4452e+06,2038
2.4452e+06,2033
2.4452e+06,2027
2.4452e+06,2036
2.4452e+06,2031
2.4452e+06,2036
2.4452e+06,2035
2.4453e+06,2034
2.4453e+06,2029
2.4453e+06,2032
2.4453e+06,2042
2.4453e+06,2038
2.4453e+06,2039
2.4453e+06,2024
2.4453e+06,2039
2.4453e+06,2047
2.4453e+06,2040
2.4453e+06,2034
2.4453e+06,2032
2.4453e+06,2036
2.4453e+06,2042
2.4453e+06,2042
2.4453e+06,2040
2.4453e+06,2027
2.4453e+06,2037
2.4453e+06,2042
2.4453e+06,2039
2.4453e+06,2043
2.4453e+06,2038
2.4453e+06,2041
2.4453e+06,2043
2.4453e+06,2037
2.4453e+06,2041
2.4454e+06,2037
2.4454e+06,2039
2.4454e+06,2039
2.4454e+06,2042
2.4454e+06,2040
2.4454e+06,2029
2.4454e+06,2040
2.4454e+06,2041
2.4454e+06,2039
2.4454e+06,2036
2.4454e+06,2036
2.4454e+06,2036
2.4454e+06,2039
2.4454e+06,2040
2.4454e+06,2041
2.4454e+06,2036
2.4454e+06,2032
2.4454e+06,2036
2.4454e+06,2037
2.4454e+06,2041
2.4454e+06,2030
2.4454e+06,2032
2.4454e+06,2032
2.4454e+06,2033
2.4454e+06,2036
2.4455e+06,2034
2.4455e+06,2033
2.4455e+06,2037
2.4455e+06,2039
2.4455e+06,2029
2.4455e+06,2034
2.4455e+06,2036
2.4455e+06,2041
2.4455e+06,2044
2.4455e+06,2048
2.4455e+06,2045
2.4455e+06,2050
2.4455e+06,2051
2.4455e+06,2061
2.4455e+06,2070
2.4455e+06,2060
2.4455e+06,2060
2.4455e+06,2068
2.4455e+06,2068
2.4455e+06,2071
2.4455e+06,2070
2.4455e+06,2066
2.4455e+06,2058
2.4455e+06,2054
2.4455e+06,2051
2.4455e+06,2040
2.4456e+06,2041
2.4456e+06,2029
2.4456e+06,2037
2.4456e+06,2038
2.4456e+06,2034
2.4456e+06,2029
2.4456e+06,2024
2.4456e+06,2031
2.4456e+06,2032
2.4456e+06,2030
2.4456e+06,2025
2.4456e+06,2032
2.4456e+06,2031
2.4456e+06,2032
2.4456e+06,2029
2.4456e+06,2028
2.4456e+06,2029
2.4456e+06,2027
2.4456e+06,2028
2.4456e+06,2025
2.4456e+06,2010
2.4456e+06,2001
2.4456e+06,2022
2.4456e+06,2056
2.4456e+06,2115
2.4457e+06,2181
2.4457e+06,2243
2.4457e+06,2277
2.4457e+06,2306
2.4457e+06,2264
2.4457e+06,2203
2.4457e+06,2137
2.4457e+06,2081
2.4457e+06,2039
2.4457e+06,2031
2.4457e+06,2032
2.4457e+06,2034
2.4457e+06,2030
2.4457e+06,2040
2.4457e+06,2043
2.4457e+06,2039
2.4457e+06,2037
2.4457e+06,2035
2.4457e+06,2038
2.4457e+06,2041
2.4457e+06,2035
2.4457e+06,2030
2.4457e+06,2033
2.4457e+06,2032
2.4457e+06,2036
2.4457e+06,2033
2.4458e+06,2040
2.4458e+06,2037
2.4458e+06,2040
2.4458e+06,2047
2.4458e+06,2041
2.4458e+06,2034
2.4458e+06,2035
2.4458e+06,2042
2.4458e+06,2045
2.4458e+06,2040
2.4458e+06,2039
2.4458e+06,2041
2.4458e+06,2042
2.4458e+06,2049
2.4458e+06,2051
2.4458e+06,2046
2.4458e+06,2045
2.4458e+06,2044
2.4458e+06,2051
2.4458e+06,2052
2.4458e+06,2055
2.4458e+06,2051
2.4458e+06,2054
2.4458e+06,2063
2.4458e+06,2061
2.4458e+06,2056
2.4459e+06,2059
2.4459e+06,2060
2.4459e+06,2068
2.4459e+06,2071
2.4459e+06,2069
2.4459e+06,2073
2.4459e+06,2077
2.4459e+06,2083
2.4459e+06,2082
2.4459e+06,2091
2.4459e+06,2086
2.4459e+06,2087
2.4459e+06,2093
2.4459e+06,2096
2.4459e+06,2103
2.4459e+06,2099
2.4459e+06,2095
2.4459e+06,2107
2.4459e+06,2107
2.4459e+06,2104
2.4459e+06,2099
2.4459e+06,2093
2.4459e+06,2095
2.4459e+06,2093
2.4459e+06,2086
2.446e+06,2079
2.446e+06,2078
2.446e+06,2069
2.446e+06,2066
2.446e+06,2062
2.446e+06,2058
2.446e+06,2048
2.446e+06,2045
2.446e+06,2040
2.446e+06,2048
2.446e+06,2042
2.446e+06,2031
2.446e+06,2037
2.446e+06,2042
2.446e+06,2040
2.446e+06,2031
2.446e+06,2033
2.446e+06,2034
2.446e+06,2038
2.446e+06,2036
2.446e+06,2039
2.446e+06,2034
2.446e+06,2030
2.446e+06,2036
2.446e+06,2035
2.446e+06,2041
2.4461e+06,2033
2.4461e+06,2035
2.4461e+06,2033
2.4461e+06,2039
2.4461e+06,2035
2.4461e+06,2033
2.4461e+06,2033
2.4461e+06,2038
2.4461e+06,2037
2.4461e+06,2039
2.4461e+06,2031
2.4461e+06,2036
2.4461e+06,2034
2.4461e+06,2039
2.4461e+06,2039
2.4461e+06,2038
2.4461e+06,2037
2.4461e+06,2040
2.4461e+06,2034
2.4461e+06,2039
2.4461e+06,2039
2.4461e+06,2039
2.4461e+06,2038
2.4461e+06,2043
2.4461e+06,2043
2.4462e+06,2036
2.4462e+06,2036
2.4462e+06,2036
2.4462e+06,2033
2.4462e+06,2035
2.4462e+06,2040
2.4462e+06,2036
2.4462e+06,2037
2.4462e+06,2034
2.4462e+06,2045
2.4462e+06,2043
2.4462e+06,2037
2.4462e+06,2035
2.4462e+06,2031
2.4462e+06,2039
2.4462e+06,2037
2.4462e+06,2032
2.4462e+06,2037
2.4462e+06,2039
2.4462e+06,2039
2.4462e+06,2035
2.4462e+06,2029
2.4462e+06,2034
2.4462e+06,2036
2.4462e+06,2039
2.4462e+06,2038
2.4463e+06,2031
2.4463e+06,2036
2.4463e+06,2033
2.4463e+06,2037
2.4463e+06,2041
2.4463e+06,2033
2.4463e+06,2029
2.4463e+06,2035
2.4463e+06,2039
2.4463e+06,2040
2.4463e+06,2034
2.4463e+06,2032
2.4463e+06,2039
2.4463e+06,2043
2.4463e+06,2037
2.4463e+06,2040
2.4463e+06,2045
2.4463e+06,2048
2.4463e+06,2048
2.4463e+06,2052
2.4463e+06,2051
2.4463e+06,2062
2.4463e+06,2055
2.4463e+06,2065
2.4463e+06,2067
2.4463e+06,2069
2.4464e+06,2060
2.4464e+06,2064
2.4464e+06,2070
2.4464e+06,2063
2.4464e+06,2057
2.4464e+06,2046
2.4464e+06,2038
2.4464e+06,2037
2.4464e+06,2030
2.4464e+06,2033
2.4464e+06,2035
2.4464e+06,2035
2.4464e+06,2033
2.4464e+06,2035
2.4464e+06,2040
2.4464e+06,2029
2.4464e+06,2031
2.4464e+06,2034
2.4464e+06,2039
2.4464e+06,2034
2.4464e+06,2028
2.4464e+06,2035
2.4464e+06,2033
2.4464e+06,2038
2.4464e+06,2034
2.4465e+06,2031
2.4465e+06,2027
2.4465e+06,2018
2.4465e+06,2011
2.4465e+06,2023
2.4465e+06,2050
2.4465e+06,2101
2.4465e+06,2164
2.4465e+06,2235
2.4465e+06,2282
2.4465e+06,2312
2.4465e+06,2272
2.4465e+06,2214
2.4465e+06,2156
2.4465e+06,2086
2.4465e+06,2046
2.4465e+06,2035
2.4465e+06,2038
2.4465e+06,2045
2.4465e+06,2043
2.4465e+06,2054
2.4465e+06,2042
2.4465e+06,2040
2.4465e+06,2041
2.4465e+06,2041
2.4465e+06,2038
2.4466e+06,2039
2.4466e+06,2037
2.4466e+06,2040
2.4466e+06,2041
2.4466e+06,2044
2.4466e+06,2035
2.4466e+06,2040
2.4466e+06,2041
2.4466e+06,2043
2.4466e+06,2046
2.4466e+06,2044
2.4466e+06,2040
2.4466e+06,2044
2.4466e+06,2049
2.4466e+06,2047
2.4466e+06,2047
2.4466e+06,2045
2.4466e+06,2040
2.4466e+06,2051
2.4466e+06,2052
2.4466e+06,2050
2.4466e+06,2045
2.4466e+06,2047
2.4466e+06,2053
2.4466e+06,2051
2.4467e+06,2060
2.4467e+06,2050
2.4467e+06,2055
2.4467e+06,2059
2.4467e+06,2060
2.4467e+06,2062
2.4467e+06,2061
2.4467e+06,2061
2.4467e+06,2068
2.4467e+06,2070
2.4467e+06,2067
2.4467e+06,2070
2.4467e+06,2070
2.4467e+06,2073
2.4467e+06,2079
2.4467e+06,2083
2.4467e+06,2082
2.4467e+06,2087
2.4467e+06,2092
2.4467e+06,2082
2.4467e+06,2095
2.4467e+06,2096
2.4467e+06,2098
2.4467e+06,2102
2.4467e+06,2108
2.4467e+06,2109
2.4468e+06,2105
2.4468e+06,2106
2.4468e+06,2101
2.4468e+06,2106
2.4468e+06,2106
2.4468e+06,2097
2.4468e+06,2091
2.4468e+06,2089
2.4468e+06,2081
2.4468e+06,2077
2.4468e+06,2066
2.4468e+06,2058
2.4468e+06,2057
2.4468e+06,2052
2.4468e+06,2040
2.4468e+06,2048
2.4468e+06,2042
2.4468e+06,2044
2.4468e+06,2041
2.4468e+06,2042
2.4468e+06,2039
2.4468e+06,2037
2.4468e+06,2035
2.4468e+06,2036
2.4468e+06,2041
2.4468e+06,2038
2.4469e+06,2035
2.4469e+06,2033
2.4469e+06,2043
2.4469e+06,2039
2.4469e+06,2042
2.4469e+06,2037
2.4469e+06,2035
2.4469e+06,2039
2.4469e+06,2037
2.4469e+06,2038
2.4469e+06,2039
2.4469e+06,2041
2.4469e+06,2040
2.4469e+06,2042
2.4469e+06,2044
2.4469e+06,2039
2.4469e+06,2038
2.4469e+06,2042
2.4469e+06,2043
2.4469e+06,2036
2.4469e+06,2047
2.4469e+06,2037
2.4469e+06,2043
2.4469e+06,2045
2.4469e+06,2042
2.447e+06,2037
2.447e+06,2037
2.447e+06,2039
2.447e+06,2043
2.447e+06,2043
2.447e+06,2040
2.447e+06,2037
2.447e+06,2031
2.447e+06,2048
2.447e+06,2043
2.447e+06,2039
2.447e+06,2037
2.447e+06,2041
2.447e+06,2047
2.447e+06,2040
2.447e+06,2040
2.447e+06,2032
2.447e+06,2037
2.447e+06,2038
2.447e+06,2041
2.447e+06,2045
2.447e+06,2039
2.447e+06,2043
2.447e+06,2039
2.447e+06,2029
2.447e+06,2041
2.4471e+06,2037
2.4471e+06,2038
2.4471e+06,2041
2.4471e+06,2041
2.4471e+06,2041
2.4471e+06,2032
2.4471e+06,2038
2.4471e+06,2037
2.4471e+06,2044
2.4471e+06,2039
2.4471e+06,2039
2.4471e+06,2029
2.4471e+06,2039
2.4471e+06,2038
2.4471e+06,2037
2.4471e+06,2039
2.4471e+06,2039
2.4471e+06,2037
2.4471e+06,2037
2.4471e+06,2043
2.4471e+06,2039
2.4471e+06,2026
2.4471e+06,2036
2.4471e+06,2040
2.4471e+06,2039
2.4472e+06,2039
2.4472e+06,2036
2.4472e+06,2038
2.4472e+06,2043
2.4472e+06,2046
2.4472e+06,2046
2.4472e+06,2045
2.4472e+06,2046
2.4472e+06,2048
2.4472e+06,2058
2.4472e+06,2057
2.4472e+06,2057
2.4472e+06,2057
2.4472e+06,2069
2.4472e+06,2070
2.4472e+06,2065
2.4472e+06,2051
2.4472e+06,2070
2.4472e+06,2062
2.4472e+06,2057
2.4472e+06,2052
2.4472e+06,2043
2.4472e+06,2030
2.4472e+06,2037
2.4472e+06,2039
2.4472e+06,2029
2.4473e+06,2038
2.4473e+06,2033
2.4473e+06,2033
2.4473e+06,2028
2.4473e+06,2038
2.4473e+06,2034
2.4473e+06,2033
2.4473e+06,2038
2.4473e+06,2035
2.4473e+06,2037
2.4473e+06,2031
2.4473e+06,2019
2.4473e+06,2034
2.4473e+06,2034
2.4473e+06,2036
2.4473e+06,2021
2.4473e+06,2015
2.4473e+06,2004
2.4473e+06,2018
2.4473e+06,2048
2.4473e+06,2100
2.4473e+06,2159
2.4473e+06,2229
2.4473e+06,2276
2.4473e+06,2309
2.4473e+06,2277
2.4474e+06,2211
2.4474e+06,2139
2.4474e+06,2089
2.4474e+06,2051
2.4474e+06,2041
2.4474e+06,2043
2.4474e+06,2038
2.4474e+06,2045
2.4474e+06,2042
2.4474e+06,2041
2.4474e+06,2034
2.4474e+06,2042
2.4474e+06,2037
2.4474e+06,2046
2.4474e+06,2040
2.4474e+06,2037
2.4474e+06,2030
2.4474e+06,2039
2.4474e+06,2040
2.4474e+06,2043
2.4474e+06,2037
2.4474e+06,2039
2.4474e+06,2033
2.4474e+06,2045
2.4474e+06,2036
2.4475e+06,2041
2.4475e+06,2035
2.4475e+06,2041
2.4475e+06,2043
2.4475e+06,2047
2.4475e+06,2034
2.4475e+06,2043
2.4475e+06,2041
2.4475e+06,2044
2.4475e+06,2046
2.4475e+06,2040
2.4475e+06,2047
2.4475e+06,2049
2.4475e+06,2050
2.4475e+06,2056
2.4475e+06,2048
2.4475e+06,2050
2.4475e+06,2050
2.4475e+06,2053
2.4475e+06,2059
2.4475e+06,2061
2.4475e+06,2057
2.4475e+06,2063
2.4475e+06,2065
2.4475e+06,2066
2.4475e+06,2068
2.4476e+06,2060
2.4476e+06,2071
2.4476e+06,2075
2.4476e+06,2083
2.4476e+06,2082
2.4476e+06,2073
2.4476e+06,2083
2.4476e+06,2088
2.4476e+06,2096
2.4476e+06,2094
2.4476e+06,2103
2.4476e+06,2095
2.4476e+06,2101
2.4476e+06,2100
2.4476e+06,2104
2.4476e+06,2097
2.4476e+06,2099
2.4476e+06,2097
2.4476e+06,2100
2.4476e+06,2090
2.4476e+06,2088
2.4476e+06,2078
2.4476e+06,2066
2.4476e+06,2073
2.4476e+06,2069
2.4477e+06,2056
2.4477e+06,2054
2.4477e+06,2048
2.4477e+06,2049
2.4477e+06,2045
2.4477e+06,2041
2.4477e+06,2034
2.4477e+06,2029
2.4477e+06,2036
2.4477e+06,2032
2.4477e+06,2035
2.4477e+06,2030
2.4477e+06,2032
2.4477e+06,2033
2.4477e+06,2031
2.4477e+06,2030
2.4477e+06,2026
2.4477e+06,2028
2.4477e+06,2036
2.4477e+06,2036
2.4477e+06,2029
2.4477e+06,2027
2.4477e+06,2026
2.4477e+06,2031
2.4477e+06,2030
2.4477e+06,2036
2.4478e+06,2031
2.4478e+06,2027
2.4478e+06,2028
2.4478e+06,2033
2.4478e+06,2036
2.4478e+06,2037
2.4478e+06,2031
2.4478e+06,2034
2.4478e+06,2033
2.4478e+06,2035
2.4478e+06,2027
2.4478e+06,2022
2.4478e+06,2036
2.4478e+06,2039
2.4478e+06,2039
2.4478e+06,2031
2.4478e+06,2032
