0,0.00016654,low,positive
0.001,-0.000214035030836612
0.002,0.00184842678997654
0.003,0.00100495146135415
0.004,0.000318519587310107
0.005,0.00196874233985511
0.006,0.000861206041236073
0.007,-8.10546862339834e-05
0.008,0.00162679288230549
0.009,0.000834609972315548
0.01,-0.000147544858535298
0.011,0.00156663510736621
0.012,0.000671234120375175
0.013,-0.000885269151211787
0.014,0.000726325977424835
0.015,0.000357780450954692
0.016,-0.000738357532412692
0.017,0.00107334135286408
0.018,0.000890968308837614
0.019,-0.00045466613059375
0.02,0.000992286666630093
0.021,0.000982788070587048
0.022,3.86276239083827e-05
0.023,0.00167301938304831
0.024,0.00164768979360019
0.025,0.000190605160597102
0.026,0.00134943387784858
0.027,0.00136463163151745
0.028,-0.000108917234626915
0.029,0.00113919828542919
0.03,0.00141212461173268
0.031,-0.000108283994890712
0.032,0.000773185717903857
0.033,0.00076748656027803
0.034,-0.000867538438598103
0.035,0.000276725764720709
0.036,0.00100495146135415
0.037,-0.000421737664311195
0.038,0.000615509023589311
0.039,0.00135766599441922
0.04,-0.000381843560930406
0.041,0.000518623343950253
0.042,0.00189781948940038
0.043,0.000420471184838789
0.044,0.000980255111642236
0.045,0.00205802914265973
0.046,0.000227966305033078
0.047,0.000523689261839877
0.048,0.00178003689846662
0.049,0.00018807220165229
0.05,0.000416038506685368
0.051,0.00177940365873042
0.052,-2.21633907671048e-05
0.053,-0.000377410882776985
0.054,0.00102141569449543
0.055,-0.000326118464144542
0.056,-0.000273559566039694
0.057,0.00144568631775144
0.058,0.000203903195057364
0.059,-6.52236928289085e-05
0.06,0.00141972348856712
0.061,0.000310287470739468
0.062,0.000376777643040782
0.063,0.00216441341834184
0.064,0.000978355392433627
0.065,0.000435668938507661
0.066,0.00187945553705049
0.067,0.000728225696633444
0.068,8.61206041236073e-05
0.069,0.0017338103977238
0.07,0.000820045458382879
0.071,3.48281854911647e-05
0.072,0.00139059446070178
0.073,0.000207069393738379
0.074,-0.000762420642388406
0.075,0.000964424118237162
0.076,0.000493926994238336
0.077,-0.000372344964887361
0.078,0.00134436795995896
0.079,0.000876403794904945
0.08,-0.000397674554335481
0.081,0.00131777189103843
0.082,0.00149697873638388
0.083,0.000352081293328865
0.084,0.00182309720052842
0.085,0.0017135467261653
0.086,7.85217272891714e-05
0.087,0.00137856290571392
0.088,0.0015014114145373
0.089,-3.29284662825557e-05
0.09,0.00127534482871283
0.091,0.00158436581997989
0.092,-0.000324218744935934
0.093,0.000449600212704127
0.094,0.00090489958303408
0.095,-0.000650970448816679
0.096,0.000538887015508749
0.097,0.00138869474149317
0.098,-0.000157043454578343
0.099,0.000720626819799008
0.1,0.0014171905296223
0.101,-5.88912954668785e-05
0.102,0.00116832731329453
0.103,0.00221127315882086
0.104,0.000557250967858636
0.105,0.00118922422458922
0.106,0.00195481106565865
0.107,0.00024949645606398
0.108,0.000821311937855285
0.109,0.0018610915847006
0.11,0.000264694209732852
0.111,0.000721893299271414
0.112,0.00155903623053177
0.113,-0.000428703301409428
0.114,-0.000125381467768193
0.115,0.00123418424585964
0.116,-0.000178573605609245
0.117,0.000196304318222928
0.118,0.00169011685592579
0.119,0.000145645139326689
0.12,5.44586173134576e-05
0.121,0.00173634335666861
0.122,0.000752288806609158
0.123,0.000681365956154423
0.124,0.00226763149534293
0.125,0.000940361008261448
0.126,0.000291290278653378
0.127,0.00187438961916087
0.128,0.000757354724498782
0.129,8.67538438598103e-05
0.13,0.00179206845345448
0.131,0.000849174486248216
0.132,-0.000325485224408339
0.133,0.000969490036126786
0.134,0.000188705441388493
0.135,-0.000725059497952429
0.136,0.00108600614758814
0.137,0.000697830189295701
0.138,-0.000334350580715181
0.139,0.0012474822803199
0.14,0.000732025135050662
0.141,-0.000330551142297963
0.142,0.00168631741750858
0.143,0.00154510495633531
0.144,0.00018173980429026
0.145,0.00168188473935516
0.146,0.00133360288444351
0.147,-0.000196304318222928
0.148,0.00129560850027133
0.149,0.00128800962343689
0.15,-0.000239364620284732
0.151,0.00117275999144795
0.152,0.001013816817661
0.153,-0.000977088912961221
0.154,0.000313453669420483
0.155,0.000741523731093707
0.156,-0.000758621203971188
0.157,0.000620574941478935
0.158,0.00122151945113558
0.159,-0.000485061637931494
0.16,0.000466064445845404
0.161,0.00130827329499539
0.162,9.75189193752612e-05
0.163,0.0011202010933431
0.164,0.00187882229731429
0.165,0.000207702633474582
0.166,0.000727592456897241
0.167,0.00153813931923708
0.168,-4.74929802152246e-05
0.169,0.000518623343950253
0.17,0.00153497312055606
0.171,-2.78625483929318e-05
0.172,6.83898915099235e-05
0.173,0.000813713061020849
0.174,-0.000725692737688632
0.175,-0.000349548334384053
0.176,0.00105054472236077
0.177,-0.000244430538174356
0.178,-2.91290278653378e-05
0.179,0.00130067441816095
0.18,-0.000216567989781424
0.181,-7.02896107185325e-05
0.182,0.00185729214628338
0.183,0.000629440297785777
0.184,0.000375511163568376
0.185,0.00191111752386064
0.186,0.000433135979562849
0.187,-6.20574941478935e-05
0.188,0.00160083005312117
0.189,0.000433769219299052
0.19,-0.000150711057216313
0.191,0.00153623960002847
0.192,0.000166542050621388
0.193,-0.000953659042721711
0.194,0.000738357532412692
0.195,-4.81262199514276e-05
0.196,-0.000763687121860812
0.197,0.00112843320991374
0.198,0.000484428398195291
0.199,-0.000554718008913824
0.2,0.00102838133159366
0.201,0.000637672414356416
0.202,-3.41949457549617e-05
0.203,0.00170784756853948
0.204,0.00123925016374926
0.205,-1.39312741964659e-05
0.206,0.00134373472022276
0.207,0.000980255111642236
0.208,-0.000307121272058453
0.209,0.00117402647092035
0.21,0.00105434416077799
0.211,-0.000335617060187587
0.212,0.000716194141645587
0.213,0.000390075677501045
0.214,-0.00107270811312787
0.215,0.000331817621770369
0.216,0.00071239470322837
0.217,-0.000618041982534123
0.218,0.000671867360111378
0.219,0.00101824949581442
0.22,-0.000640838613037431
0.221,0.000657936085914912
0.222,0.00165465543069843
0.223,0.000138046262492253
0.224,0.00107334135286408
0.225,0.00175597378849091
0.226,-0.000122848508823381
0.227,0.000619941701742732
0.228,0.00152610776424922
0.229,-0.000176673886400636
0.23,0.00049899291212796
0.231,0.00155207059343354
0.232,-0.000488861076348712
0.233,-0.000345748895966835
0.234,0.000863105760444682
0.235,-0.00068706511378025
0.236,-0.000196304318222928
0.237,0.00131587217182982
0.238,-0.000177940365873042
0.239,-6.33239736202995e-05
0.24,0.00126521299293358
0.241,2.53295894481198e-06
0.242,0.000442634575605894
0.243,0.00200736996376349
0.244,0.00059841155071183
0.245,0.000411605828531947
0.246,0.00168631741750858
0.247,0.000334350580715181
0.248,8.86535630684193e-05
0.249,0.00157993314182647
0.25,0.000398307794071684
0.251,1.26647947240599e-05
0.252,0.00116389463514111
0.253,-0.000291923518389581
0.254,-0.000769386279486639
0.255,0.000892868028046223
0.256,5.00259391600366e-05
0.257,-0.000384376519875218
0.258,0.00130700681552298
0.259,0.000357780450954692
0.26,-0.000506591788962396
0.261,0.00138172910439494
0.262,0.00105434416077799
0.263,0.000179840085081651
0.264,0.00184272763235072
0.265,0.00120632169746671
0.266,-0.000174140927455824
0.267,0.00143175504355497
0.268,0.00106827543497445
0.269,-0.000295089717070596
0.27,0.00132157132945565
0.271,0.00114933012120844
0.272,-0.000721260059535211
0.273,0.000451499931912736
0.274,0.000526222220784689
0.275,-0.000962524399028553
0.276,0.000606010427546266
0.277,0.00105181120183317
0.278,-0.000510391227379614
0.279,0.000715560901909384
0.28,0.00106067655814002
0.281,-0.000371711725151158
0.282,0.00121075437562013
0.283,0.00186869046153504
0.284,0.000162109372467967
0.285,0.00113603208674817
0.286,0.00161096188890042
0.287,-0.000146911618799095
0.288,0.000770652758959045
0.289,0.0015647353881576
0.29,-0.000119682310142366
0.291,0.000644638051454649
0.292,0.00118795774511682
0.293,-0.000839675890205172
0.294,-0.000184272763235072
0.295,0.000979621871906033
0.296,-0.000502792350545178
0.297,0.000154510495633531
0.298,0.00141972348856712
0.299,-0.000219734188462439
0.3,4.43267815342097e-06
0.301,0.00154953763448873
0.302,0.000466064445845404
0.303,0.000659835805123521
0.304,0.00202636715584958
0.305,0.000563583365220666
0.306,0.000279258723665521
0.307,0.00166795346515869
0.308,0.000379943841721797
0.309,0.000127281186976802
0.31,0.00163945767702955
0.311,0.000429336541145631
0.312,-0.000362213129108113
0.313,0.000859306322027464
0.314,-0.000196304318222928
0.315,-0.000647804250135664
0.316,0.00111640165492588
0.317,0.000327384943616948
0.318,-0.000297622676015408
0.319,0.00128231046581107
0.32,0.000352081293328865
0.321,-0.000237464901076123
0.322,0.00185285946812996
0.323,0.00119808958089607
0.324,0.000184906002971275
0.325,0.00180346676870613
0.326,0.000999885543464529
0.327,-0.000198204037431537
0.328,0.00146911618799095
0.329,0.00101951597528682
0.33,-0.000238731380548529
0.331,0.00134690091890377
0.332,0.000671234120375175
0.333,-0.00102141569449543
0.334,0.000547752371815591
0.335,0.000533821097619125
0.336,-0.000744056690038519
0.337,0.000897933945935847
0.338,0.00102204893423163
0.339,-0.000542053214189764
0.34,0.000745956409247128
0.341,0.00122785184849761
0.342,8.86535630684193e-05
0.343,0.00139249417991039
0.344,0.00174900815139267
0.345,8.73870835960133e-05
0.346,0.000978355392433627
0.347,0.00146025083168411
0.348,-0.000148178098271501
0.349,0.000800415026560586
0.35,0.0015001449350649
0.351,-0.000161476132731764
0.352,0.000242530818965747
0.353,0.000770019519222842
0.354,-0.000825744616008706
0.355,-6.83898915099235e-05
0.356,0.00109740446283979
0.357,-0.000327384943616948
0.358,0.00024316405870195
0.359,0.00131650541156603
0.36,-0.000324218744935934
0.361,0.000288124079972363
0.362,0.00195164486697763
0.363,0.000478729240569464
0.364,0.000648437489871867
0.365,0.00193644711330876
0.366,0.000223533626879657
0.367,0.000201370236112552
0.368,0.00167175290357591
0.369,0.000220367428198642
0.37,9.49859604304493e-05
0.371,0.00161539456705384
0.372,-0.000161476132731764
0.373,-0.000776351916584872
0.374,0.000888435349892802
0.375,-0.000269760127622476
0.376,-0.000571182242055102
0.377,0.0012892761029093
0.378,0.000233032222922702
0.379,-0.000464164726636795
0.38,0.00116769407355832
0.381,0.000485694877667697
0.382,0.000112716673044133
0.383,0.00184969326944895
0.384,0.00103787992763671
0.385,4.87594596876306e-05
0.386,0.00146025083168411
0.387,0.000785217272891714
0.388,-0.000219100948726236
0.389,0.00132347104866426
0.39,0.000846641527303404
0.391,-0.000288124079972363
0.392,0.000792182909989947
0.393,0.000144378659854283
0.394,-0.00099165342689389
0.395,0.000552185049969012
0.396,0.000505958549226193
0.397,-0.000573081961263711
0.398,0.000902366624089268
0.399,0.000757354724498782
0.4,-0.000661102284595927
0.401,0.00101001737924378
0.402,0.00148368070192362
0.403,4.87594596876306e-05
0.404,0.00136779783019847
0.405,0.00153940579870948
0.406,-0.000283058162082739
0.407,0.000930862412218403
0.408,0.00138742826202076
0.409,-0.000348281854911647
0.41,0.000795982348407165
0.411,0.00142288968724813
0.412,-0.000787116992100323
0.413,-0.0001057510359459
0.414,0.000806747423922616
0.415,-0.000894134507518629
0.416,8.10546862339834e-05
0.417,0.00130637357578678
0.418,-0.000408439629850932
0.419,0.000139945981700862
0.42,0.00126647947240599
0.421,-0.000146278379062892
0.422,0.000685165394571641
0.423,0.00201116940218071
0.424,0.000372344964887361
0.425,0.000557884207594839
0.426,0.00169771573276023
0.427,0.000121582029350975
0.428,0.000237464901076123
0.429,0.0016280593617779
0.43,0.000187438961916087
0.431,0.000101951597528682
0.432,0.00113856504569299
0.433,-0.000501525871072772
0.434,-0.000651603688552882
0.435,0.000966957077181974
0.436,-0.000103851316737291
0.437,-0.000282424922346536
0.438,0.00134816739837618
0.439,0.000157043454578343
0.44,-0.000420471184838789
0.441,0.0015007781748011
0.442,0.000912498459868516
0.443,0.000255195613689807
0.444,0.00187502285889707
0.445,0.000953025802985508
0.446,-0.000117782590933757
0.447,0.00147861478403399
0.448,0.000808013903395022
0.449,-0.000214035030836612
0.45,0.00140769193357926
0.451,0.00083714293126036
0.452,-0.000732658374786865
0.453,0.000570549002318899
0.454,0.000250129695800183
0.455,-0.000894767747254832
0.456,0.000825744616008706
0.457,0.000775718676848669
0.458,-0.000521156302895065
0.459,0.000909965500923704
0.46,0.000782684313946902
0.461,-0.000343215937022023
0.462,0.00148621366086843
0.463,0.00159196469681433
0.464,5.88912954668785e-05
0.465,0.00133360288444351
0.466,0.00134626767916757
0.467,-0.000277359004456912
0.468,0.000997352584519717
0.469,0.00136463163151745
0.47,-0.000265327449469055
0.471,0.000820678698119082
0.472,0.000916297898285734
0.473,-0.00101634977660581
0.474,4.55932610066156e-05
0.475,0.000834609972315548
0.476,-0.0006554031269701
0.477,0.000388175958292436
0.478,0.00128167722607486
0.479,-0.000436302178243864
0.48,0.000225433346088266
0.481,0.00151977536688719
0.482,0.000286224360763754
0.483,0.000859306322027464
0.484,0.00194974514776902
0.485,0.000271026607094882
0.486,0.000428703301409428
0.487,0.00162172696441587
0.488,9.75189193752612e-05
0.489,0.000276092524984506
0.49,0.00162299344388828
0.491,9.87853988476672e-05
0.492,-0.000328651423089354
0.493,0.000844741808094795
0.494,-0.000480628959778073
0.495,-0.000534454337355328
0.496,0.00116959379276693
0.497,5.50918570496606e-05
0.498,-0.000223533626879657
0.499,0.00129560850027133
0.5,7.53555286081564e-05
0.501,-8.35876451787954e-05
0.502,0.00192948147621053
0.503,0.000888435349892802
0.504,0.000245697017646762
0.505,0.00180853268659575
0.506,0.000648437489871867
0.507,-0.00014374542011808
0.508,0.00154193875765429
0.509,0.000692131031669874
0.51,-0.000200103756640146
0.511,0.00140832517331546
0.512,0.000247596736855371
0.513,-0.00104104612631772
0.514,0.000688331593252656
0.515,0.000234931942131311
0.516,-0.000740257251621301
0.517,0.00106827543497445
0.518,0.000718093860854196
0.519,-0.000634506215675401
0.52,0.000913131699604719
0.521,0.00104611204420735
0.522,3.16619868101498e-05
0.523,0.00153877255897328
0.524,0.0015216750860958
0.525,-5.06591788962396e-05
0.526,0.00110500333967423
0.527,0.00126078031478016
0.528,-0.000250129695800183
0.529,0.000958091720875132
0.53,0.00131840513077464
0.531,-0.000290657038917175
0.532,0.000338150019132399
0.533,0.000583213797042959
0.534,-0.000899833665144456
0.535,0.000164009091676576
0.536,0.000965690597709568
0.537,-0.000414772027212962
0.538,0.000485694877667697
0.539,0.00114553068279122
0.54,-0.00046099852795578
0.541,0.000652236928289085
0.542,0.00187628933836947
0.543,0.000273559566039694
0.544,0.000933395371163215
0.545,0.00182689663894564
0.546,-3.54614252273677e-05
0.547,0.000492027275029727
0.548,0.00165528867043463
0.549,-3.60946649635707e-05
0.55,0.000376144403304579
0.551,0.00161792752599865
0.552,-0.000505958549226193
0.553,-0.00053065489893811
0.554,0.00101191709845239
0.555,-0.000484428398195291
0.556,-0.000294456477334393
0.557,0.00146848294825475
0.558,1.64642331412779e-05
0.559,-0.000264694209732852
0.56,0.00137602994676911
0.561,0.000384376519875218
0.562,0.000339416498604805
0.563,0.00204346462872707
0.564,0.000859939561763667
0.565,0.000172241208247215
0.566,0.00165465543069843
0.567,0.000626907338840965
0.568,-9.62524399028553e-05
0.569,0.00154447171659911
0.57,0.000711761463492167
0.571,-0.000229232784505484
0.572,0.00093656156984423
0.573,1.58309934050749e-05
0.574,-0.000896667466463441
0.575,0.000804847704714007
0.576,0.000451499931912736
0.577,-0.000480628959778073
0.578,0.00112210081255171
0.579,0.000661102284595927
0.58,-0.000580047598361944
0.581,0.00130637357578678
0.582,0.00144505307801523
0.583,0.000119049070406163
0.584,0.00158816525839711
0.585,0.00142478940645674
0.586,-0.000221000667934845
0.587,0.0011619949159325
0.588,0.00128547666449208
0.589,-0.000257095332898416
0.59,0.00106447599655723
0.591,0.00125318143794573
0.592,-0.000802314745769195
0.593,0.000188705441388493
0.594,0.000697830189295701
0.595,-0.000827011095481112
0.596,0.000469863884262622
0.597,0.00121708677298216
0.598,-0.000419204705366383
0.599,0.000490127555821118
0.6,0.00119175718353404
0.601,-0.000122215269087178
0.602,0.00109550474363118
0.603,0.00195417782592244
0.604,0.000270393367358679
0.605,0.000878936753849757
0.606,0.00166478726647767
0.607,-1.77307126136839e-05
0.608,0.000545219412870779
0.609,0.00163565823861234
0.61,3.35617060187587e-05
0.611,0.000338150019132399
0.612,0.00108727262706054
0.613,-0.00068706511378025
0.614,-0.000386276239083827
0.615,0.00103724668790051
0.616,-0.000252029415008792
0.617,-3.48281854911647e-05
0.618,0.001394393899119
0.619,-7.02896107185325e-05
0.62,-0.000189971920860899
0.621,0.00166225430753286
0.622,0.000722526539007617
0.623,0.000439468376924879
0.624,0.00197634121668955
0.625,0.000669967640902769
0.626,1.83639523498869e-05
0.627,0.00161159512863662
0.628,0.000549018851287997
0.629,-8.92868028046223e-05
0.63,0.00157360074446444
0.631,0.000526222220784689
0.632,-0.000730758655578256
0.633,0.00073582457346788
0.634,5.06591788962396e-06
0.635,-0.000833976732579345
0.636,0.0010366134481643
0.637,0.000553451529441418
0.638,-0.000504692069753787
0.639,0.00107080839391926
0.64,0.000576248159944726
0.641,-0.000252029415008792
0.642,0.00170088193144124
0.643,0.00136463163151745
0.644,5.44586173134576e-05
0.645,0.00148368070192362
0.646,0.00110563657941043
0.647,-0.000291923518389581
0.648,0.00118669126564441
0.649,0.00113476560727577
0.65,-0.000305221552849844
0.651,0.000972022995071598
0.652,0.000611709585172093
0.653,-0.00109550474363118
0.654,0.000284324641555145
0.655,0.000652870168025288
0.656,-0.000726325977424835
0.657,0.000640205373301228
0.658,0.00109360502442257
0.659,-0.000607276907018672
0.66,0.000476196281624652
0.661,0.00146151731115651
0.662,0.000131713865130223
0.663,0.00105877683893141
0.664,0.00184399411182312
0.665,4.68597404790216e-05
0.666,0.000609176626227281
0.667,0.00155776975105937
0.668,-8.61206041236073e-05
0.669,0.000464164726636795
0.67,0.00157676694314546
0.671,-0.000141845700909471
0.672,-0.000229866024241687
0.673,0.000792182909989947
0.674,-0.000658569325651115
0.675,-0.000330551142297963
0.676,0.00115629575830667
0.677,-0.00013741302275605
0.678,-3.35617060187587e-05
0.679,0.00124621580084749
0.68,-0.00013108062539402
0.681,0.00022416686661586
0.682,0.00196937557959131
0.683,0.000618041982534123
0.684,0.000463531486900592
0.685,0.00181993100184741
0.686,0.000331817621770369
0.687,5.69915762582696e-05
0.688,0.00163375851940373
0.689,0.000373611444359767
0.69,-2.84957881291348e-05
0.691,0.00150267789400971
0.692,-0.000134246824075035
0.693,-0.000913131699604719
0.694,0.000900466904880659
0.695,-1.77307126136839e-05
0.696,-0.000612342824908296
0.697,0.0013114394936764
0.698,0.000463531486900592
0.699,-0.000608543386491078
0.7,0.00115819547751528
0.701,0.000890968308837614
0.702,5.50918570496606e-05
0.703,0.00175090787060128
0.704,0.0013114394936764
0.705,-0.000108283994890712
0.706,0.0013310699254987
0.707,0.00110880277809144
0.708,-0.000269760127622476
0.709,0.00123355100612343
0.71,0.00123291776638723
0.711,-0.000359680170163301
0.712,0.000567382803637884
0.713,0.000557884207594839
0.714,-0.000872604356487727
0.715,0.000526855460520892
0.716,0.00104611204420735
0.717,-0.000354614252273677
0.718,0.000839675890205172
0.719,0.00123481748559584
0.72,-0.000337516779396196
0.721,0.00113413236753956
0.722,0.00207322689632861
0.723,0.000436302178243864
0.724,0.00139312741964659
0.725,0.00202446743664098
0.726,0.000190605160597102
0.727,0.00102394865344024
0.728,0.00193011471594673
0.729,0.000252029415008792
0.73,0.00096822355665438
0.731,0.00185919186549199
0.732,-0.000266593928941461
0.733,0.000115249631988945
0.734,0.00134246824075035
0.735,-0.000170974728774809
0.736,0.000407806390114729
0.737,0.00178573605609245
0.738,0.000200736996376349
0.739,0.000328651423089354
0.74,0.00165528867043463
0.741,0.000506591788962396
0.742,0.000836509691524157
0.743,0.00218784328858135
0.744,0.000705429066130137
0.745,0.00041857146563018
0.746,0.00168188473935516
0.747,0.000315986628365295
0.748,1.83639523498869e-05
0.749,0.00151660916820617
0.75,0.000296356196543002
0.751,-0.000314086909156686
0.752,0.000787116992100323
0.753,-0.00045023345244033
0.754,-0.000970756515599192
0.755,0.000761154162916
0.756,3.48281854911647e-05
0.757,-0.000568016043374087
0.758,0.00107144163365547
0.759,0.0002115020718918
0.76,-0.000660469044859724
0.761,0.00137729642624151
0.762,0.00105181120183317
0.763,-6.33239736202995e-06
0.764,0.00159703061470395
0.765,0.00096822355665438
0.766,-0.000371078485414955
0.767,0.00121835325245456
0.768,0.000889701829365208
0.769,-0.000406539910642323
0.77,0.00116009519672389
0.771,0.00081814573917427
0.772,-0.00104421232499874
0.773,0.000317253107837701
0.774,0.000385642999347624
0.775,-0.000987853988476672
0.776,0.00064907072960807
0.777,0.000947326645359681
0.778,-0.000623107900423747
0.779,0.000631340016994386
0.78,0.000999252303728326
0.781,-0.000216567989781424
0.782,0.00128547666449208
0.783,0.00175660702822711
0.784,9.18197617494343e-05
0.785,0.00100748442029897
0.786,0.00147861478403399
0.787,-0.000174140927455824
0.788,0.00074215697082991
0.789,0.00150267789400971
0.79,-0.000117782590933757
0.791,0.000476829521360855
0.792,0.00089856718567205
0.793,-0.000851707445193028
0.794,-0.000145645139326689
0.795,0.000984054550059454
0.796,-0.000400207513280293
0.797,0.000223533626879657
0.798,0.00136146543283644
0.799,-0.000277359004456912
0.8,9.49859604304493e-05
0.801,0.00177940365873042
0.802,0.000542053214189764
0.803,0.000667434681957957
0.804,0.0020504302658253
0.805,0.000435668938507661
0.806,0.000224800106352063
0.807,0.00173254391825139
0.808,0.000362213129108113
0.809,0.000110183714099321
0.81,0.00171038052748429
0.811,0.000265960689205258
0.812,-0.000640205373301228
0.813,0.000865005479653291
0.814,-0.000166542050621388
0.815,-0.000644004811718446
0.816,0.0012056884577305
0.817,0.000376144403304579
0.818,-0.000347648615175444
0.819,0.00120378873852189
0.82,0.000416038506685368
0.821,1.39312741964659e-05
0.822,0.00190985104438823
0.823,0.00115819547751528
0.824,0.000229232784505484
0.825,0.00166858670489489
0.826,0.000875137315432539
0.827,-0.00013108062539402
0.828,0.00146025083168411
0.829,0.000921997055911561
0.83,-0.000179840085081651
0.831,0.00121645353324595
0.832,0.000350814813856459
0.833,-0.0010144500573972
0.834,0.000644638051454649
0.835,0.000529388419465704
0.836,-0.000645904530927055
0.837,0.00102204893423163
0.838,0.000974555954016409
0.839,-0.000620574941478935
0.84,0.000890335069101411
0.841,0.00148937985954944
0.842,0.000128547666449208
0.843,0.00142098996803952
0.844,0.00181549832369399
0.845,-4.81262199514276e-05
0.846,0.000947326645359681
0.847,0.00157296750472824
0.848,-0.000160209653259358
0.849,0.000796615588143368
0.85,0.00161666104652625
0.851,-0.000307754511794656
0.852,2.02636715584958e-05
0.853,0.000873870835960133
0.854,-0.000733924854259271
0.855,6.33239736202995e-06
0.856,0.00129877469895234
0.857,-0.000216567989781424
0.858,0.000242530818965747
0.859,0.00135576627521061
0.86,-0.000179206845345448
0.861,0.000566749563901681
0.862,0.00211565395865421
0.863,0.000539520255244952
0.864,0.00070606230586634
0.865,0.00191555020201406
0.866,0.000269126887886273
0.867,0.000308387751530859
0.868,0.00175787350769951
0.869,0.000334350580715181
0.87,0.000238098140812326
0.871,0.00153750607950087
0.872,-0.000255195613689807
0.873,-0.00062374114015995
0.874,0.00103408048921949
0.875,-6.20574941478935e-05
0.876,-0.000276092524984506
0.877,0.0014589843522117
0.878,0.000350814813856459
0.879,-0.00030015563496022
0.88,0.00140135953621723
0.881,0.000863105760444682
0.882,0.00039324187618206
0.883,0.00200040432666526
0.884,0.00116832731329453
0.885,0.000127281186976802
0.886,0.00160209653259358
0.887,0.000947326645359681
0.888,-7.02896107185325e-05
0.889,0.00152547452451302
0.89,0.00104294584552633
0.891,-0.00032991790256176
0.892,0.000779518115265887
0.893,0.000357147211218489
0.894,-0.000836509691524157
0.895,0.000806747423922616
0.896,0.000865005479653291
0.897,-0.000395774835126872
0.898,0.00103408048921949
0.899,0.000973289474544003
0.9,-0.000425537102728413
0.901,0.00136083219310024
0.902,0.00178510281635624
0.903,0.000202636715584958
0.904,0.00145138547537726
0.905,0.00161602780679004
0.906,-0.000130447385657817
0.907,0.00104991148262457
0.908,0.00153054044240264
0.909,-0.000121582029350975
0.91,0.000959991440083741
0.911,0.0013526000765296
0.912,-0.000776985156321075
0.913,8.54873643874043e-05
0.914,0.000938461289052839
0.915,-0.000620574941478935
0.916,0.000414772027212962
0.917,0.00144948575616866
0.918,-0.000260894771315634
0.919,0.000327384943616948
0.92,0.00147291562640817
0.921,0.000245063777910559
0.922,0.000979621871906033
0.923,0.00213338467126789
0.924,0.000510391227379614
0.925,0.000650970448816679
0.926,0.00180789944685955
0.927,0.000296356196543002
0.928,0.000424270623256007
0.929,0.00179840085081651
0.93,0.000387542718556233
0.931,0.000104484556473494
0.932,0.00110816953835524
0.933,-0.000289390559444769
0.934,-0.000410972588795744
0.935,0.00122975156770622
0.936,0.000229232784505484
0.937,-1.26647947240599e-05
0.938,0.00151850888741478
0.939,0.000322319025727325
0.94,-9.18197617494343e-05
0.941,0.0019453124696156
0.942,0.0011626281556687
0.943,0.000466697685581607
0.944,0.00209982296524913
0.945,0.00102458189317645
0.946,5.76248159944726e-05
0.947,0.00175660702822711
0.948,0.000993553146102499
0.949,-1.20315549878569e-05
0.95,0.00169898221223264
0.951,0.000856140123346449
0.952,-0.000739624011885098
0.953,0.000849174486248216
0.954,0.000514823905533035
0.955,-0.000627540578577168
0.956,0.00118099210801859
0.957,0.00106257627734863
0.958,-0.00031915282704631
0.959,0.00110563657941043
0.96,0.00113413236753956
0.961,0.000152610776424922
0.962,0.00177180478189598
0.963,0.00180663296738715
0.964,0.000337516779396196
0.965,0.00145771787273929
0.966,0.00151280972978896
0.967,4.49600212704127e-05
0.968,0.00125001523926471
0.969,0.00154763791528012
0.97,4.74929802152246e-05
0.971,0.00092389677512017
0.972,0.000914398179077125
0.973,-0.00072315977874382
0.974,0.000410339349059541
0.975,0.00112716673044133
0.976,-0.000295089717070596
0.977,0.000761154162916
0.978,0.0015007781748011
0.979,-0.000267227168677664
0.98,0.000642105092509837
0.981,0.00203396603268402
0.982,0.000521789542631268
0.983,0.00110373686020182
0.984,0.00223217007011556
0.985,0.000339416498604805
0.986,0.000623107900423747
0.987,0.00195227810671383
0.988,0.000281791682610333
0.989,0.000468597404790216
0.99,0.00193708035304496
0.991,9.49859604304493e-05
0.992,-0.000359680170163301
0.993,0.00113919828542919
0.994,-0.000229232784505484
0.995,-0.000298889155487814
0.996,0.00152357480530441
0.997,0.000305854792586047
0.998,-9.24530014856373e-05
0.999,0.00146658322904614
1,0.000384376519875218
1.001,0.000309020991267062
1.002,0.00216378017860563
1.003,0.00105054472236077
1.004,0.000378044122513188
1.005,0.00184906002971275
1.006,0.000776351916584872
1.007,1.45645139326689e-05
1.008,0.00165212247175361
1.009,0.000825744616008706
1.01,-5.82580557306756e-05
1.011,0.00129370878106272
1.012,0.000186172482443681
1.013,-0.000882736192266975
1.014,0.000806747423922616
1.015,0.000425537102728413
1.016,-0.000496459953183148
1.017,0.00117212675171174
1.018,0.000787116992100323
1.019,-0.000529388419465704
1.02,0.0010986709423122
1.021,0.00134246824075035
1.022,0.00019883727716774
1.023,0.00159893033391256
1.024,0.00154637143580771
1.025,-8.54873643874043e-05
1.026,0.00114489744305502
1.027,0.00130194089763336
1.028,-0.000231132503714093
1.029,0.00102711485212126
1.03,0.00135829923415542
1.031,-0.000529388419465704
1.032,0.000204536434793567
1.033,0.000658569325651115
1.034,-0.000918197617494343
1.035,0.00024949645606398
1.036,0.0011208343330793
1.037,-0.000462265007428186
1.038,0.000410339349059541
1.039,0.00115819547751528
1.04,-0.000398941033807887
1.041,0.000797882067615774
1.042,0.00194721218882421
1.043,0.000232398983186499
1.044,0.000813079821284646
1.045,0.00170531460959467
1.046,-5.19256583686456e-05
1.047,0.000424270623256007
1.048,0.00159323117628674
1.049,-6.33239736202995e-06
1.05,0.000328651423089354
1.051,0.00130130765789715
1.052,-0.000659202565387318
1.053,-0.000516090385005441
1.054,0.000930862412218403
1.055,-0.00039957427354409
1.056,-0.000167175290357591
1.057,0.00137539670703291
1.058,-5.31921378410516e-05
1.059,-0.000272926326303491
1.06,0.00138869474149317
1.061,0.000530021659201907
1.062,0.000390708917237248
1.063,0.00194847866829662
1.064,0.000745956409247128
1.065,4.30603020618037e-05
1.066,0.00156283566894899
1.067,0.000544586173134576
1.068,-0.000155776975105937
1.069,0.00149381253770287
1.07,0.000640838613037431
1.071,-0.000521789542631268
1.072,0.000709228504547355
1.073,-1.32980344602629e-05
1.074,-0.000924530014856373
1.075,0.00083714293126036
1.076,0.000505958549226193
1.077,-0.000516723624741644
1.078,0.00102838133159366
1.079,0.000561683646012057
1.08,-0.00050532530948999
1.081,0.0014805145032426
1.082,0.00139819333753621
1.083,4.17938225893977e-05
1.084,0.00151534268873377
1.085,0.00120695493720291
1.086,-0.000328018183353151
1.087,0.00113286588806716
1.088,0.00115819547751528
1.089,-0.000362213129108113
1.09,0.0010359802084281
1.091,0.000927062973801185
1.092,-0.00108727262706054
1.093,0.000173507687719621
1.094,0.00064273833224604
1.095,-0.000862472520708479
1.096,0.000509124747907208
1.097,0.00116389463514111
1.098,-0.000552185049969012
1.099,0.00037424468409597
1.1,0.00125191495847332
1.101,3.03955073377438e-05
1.102,0.00103281400974709
1.103,0.00185032650918515
1.104,0.000192504879805711
1.105,0.000669334401166566
1.106,0.0015216750860958
1.107,-4.05273431169917e-05
1.108,0.000474929802152246
1.109,0.0015216750860958
1.11,4.43267815342097e-06
1.111,7.47222888719534e-05
1.112,0.000809913622603631
1.113,-0.000700363148240513
1.114,-0.00034258269728582
1.115,0.00105181120183317
1.116,-0.0002115020718918
1.117,1.26647947240599e-05
1.118,0.00133803556259693
1.119,-0.000179840085081651
1.12,-4.11605828531947e-05
1.121,0.00188958737282974
1.122,0.000644638051454649
1.123,0.000391975396709654
1.124,0.00197634121668955
1.125,0.000467964165054013
1.126,-5.12924186324426e-05
1.127,0.00167935178041034
1.128,0.000487594596876306
1.129,-0.000139312741964659
1.13,0.00164389035518298
1.131,0.00028749084023616
1.132,-0.000910598740659907
1.133,0.000869438157806712
1.134,6.14242544116905e-05
1.135,-0.000793449389462353
1.136,0.00119492338221505
1.137,0.000631973256730589
1.138,-0.000521789542631268
1.139,0.00108347318864332
1.14,0.000744689929774722
1.141,-3.67279046997737e-05
1.142,0.00174900815139267
1.143,0.00139756009780001
1.144,5.12924186324426e-05
1.145,0.00141022489252407
1.146,0.00116072843646009
1.147,-0.000239364620284732
1.148,0.00118162534775479
1.149,0.00119302366300644
1.15,-0.000245697017646762
1.151,0.000745956409247128
1.152,0.00051165770685202
1.153,-0.000980255111642236
1.154,0.000362846368844316
1.155,0.000827644335217315
1.156,-0.000530021659201907
1.157,0.000678832997209611
1.158,0.00111703489466208
1.159,-0.000525588981048486
1.16,0.000688964832988859
1.161,0.00175787350769951
1.162,0.000248229976591574
1.163,0.00108663938732434
1.164,0.00184399411182312
1.165,4.43267815342097e-06
1.166,0.000650337209080476
1.167,0.00159006497760572
1.168,-6.52236928289085e-05
1.169,0.000546485892343185
1.17,0.00162236020415207
1.171,-0.000363479608580519
1.172,-0.000277992244193115
1.173,0.0009302291724822
1.174,-0.000596511831503221
1.175,-0.000129180906185411
1.176,0.00140832517331546
1.177,-8.16879259701864e-05
1.178,1.07650755154509e-05
1.179,0.0013741302275605
1.18,7.91549670253744e-05
1.181,0.000490127555821118
1.182,0.00213908382889372
1.183,0.000719993580062805
1.184,0.000487594596876306
1.185,0.00185539242707478
1.186,0.000490127555821118
1.187,0.000147544858535298
1.188,0.00172431180168076
1.189,0.000572448721527508
1.19,7.78884875529684e-05
1.191,0.00131397245262121
1.192,-0.000106384275682103
1.193,-0.000750389087400549
1.194,0.000945426926151072
1.195,0.000214668270572815
1.196,-0.000343849176758226
1.197,0.00134816739837618
1.198,0.000535087577091531
1.199,-0.000442634575605894
1.2,0.00137729642624151
1.201,0.00119429014247885
1.202,0.000260894771315634
1.203,0.00182689663894564
1.204,0.00131523893209362
1.205,-9.56192001666523e-05
1.206,0.0013950271388552
1.207,0.00112653349070513
1.208,-0.000233665462658905
1.209,0.00128041074660246
1.21,0.00119302366300644
1.211,-0.000635772695147807
1.212,0.000423004143783601
1.213,0.000537620536036343
1.214,-0.000918830857230546
1.215,0.000573715200999914
1.216,0.001057510359459
1.217,-0.000473030082943637
1.218,0.000690864552197468
1.219,0.00105941007866761
1.22,-0.000364746088052925
1.221,0.00116959379276693
1.222,0.00186869046153504
1.223,0.000186805722179884
1.224,0.00111640165492588
1.225,0.00160969540942801
1.226,-0.000134246824075035
1.227,0.000742790210566113
1.228,0.00154573819607151
1.229,-0.000129180906185411
1.23,0.000609176626227281
1.231,0.00118605802590821
1.232,-0.00084790800677581
1.233,-0.000231132503714093
1.234,0.00094922636456829
1.235,-0.000532554618146719
1.236,9.81521591114642e-05
1.237,0.00138996122096557
1.238,-0.000247596736855371
1.239,-6.26907338840965e-05
1.24,0.00149254605823046
1.241,0.000421104424574992
1.242,0.000588912954668785
1.243,0.00198583981273259
1.244,0.000545219412870779
1.245,0.000206436154002176
1.246,0.00160969540942801
1.247,0.000355880731746083
1.248,4.49600212704127e-05
1.249,0.00155713651132316
1.25,0.000401473992752699
1.251,-0.000416671746421571
1.252,0.000773185717903857
1.253,-0.000246330257382965
1.254,-0.000733291614523068
1.255,0.000994819625574905
1.256,0.000247596736855371
1.257,-0.000379310601985594
1.258,0.00117972562854618
1.259,0.000265327449469055
1.26,-0.000336883539659993
1.261,0.00174394223350305
1.262,0.0010986709423122
1.263,8.61206041236073e-05
1.264,0.00172177884273594
1.265,0.000894767747254832
1.266,-0.000327384943616948
1.267,0.00138996122096557
1.268,0.000921363816175358
1.269,-0.000389442437764842
1.27,0.00127471158897663
1.271,0.000624374379896153
1.272,-0.00117212675171174
1.273,0.000453399651121345
1.274,0.000482528678986682
1.275,-0.000908065781715095
1.276,0.000782684313946902
1.277,0.000994819625574905
1.278,-0.000684532154835438
1.279,0.000610443105699687
1.28,0.00118985746432543
1.281,-4.43267815342097e-05
1.282,0.00125318143794573
1.283,0.00173824307587722
1.284,0
1.285,0.000832077013370736
1.286,0.00143935392038941
1.287,-0.000217201229517627
1.288,0.000643371571982243
1.289,0.00146088407142031
1.29,-0.000203269955321161
1.291,0.000112716673044133
1.292,0.000725692737688632
1.293,-0.000856140123346449
1.294,-0.000209602352683191
1.295,0.00102901457132987
1.296,-0.000353347772801271
1.297,0.000113349912780336
1.298,0.0012481155200561
1.299,-0.000340049738341008
1.3,0.000162109372467967
1.301,0.00187502285889707
1.302,0.000474296562416043
1.303,0.000549018851287997
1.304,0.00186805722179884
1.305,0.000231765743450296
1.306,0.000146911618799095
1.307,0.00163882443729335
1.308,0.00022416686661586
1.309,1.58309934050749e-05
1.31,0.00155080411396114
1.311,-0.000141212461173268
1.312,-0.000812446581548443
1.313,0.000840309129941375
1.314,-0.000265327449469055
1.315,-0.000599044790448033
1.316,0.00126204679425257
1.317,0.000245697017646762
1.318,-0.000469863884262622
1.319,0.00116642759408592
1.32,0.000474929802152246
1.321,7.53555286081564e-05
1.322,0.0018598251052282
1.323,0.00105434416077799
1.324,1.77307126136839e-05
1.325,0.0014798812635064
1.326,0.00083081053389833
1.327,-0.000234931942131311
1.328,0.00135133359705719
1.329,0.000900466904880659
1.33,-0.000328651423089354
1.331,0.00080548094445021
1.332,0.000232398983186499
1.333,-0.00102014921502303
1.334,0.000525588981048486
1.335,0.000604110708337657
1.336,-0.000564849844693072
1.337,0.000871337877015321
1.338,0.000871337877015321
1.339,-0.000622474660687544
1.34,0.000941627487733854
1.341,0.00156790158683862
1.342,0.000129814145921614
1.343,0.0013310699254987
1.344,0.00163122556045892
1.345,-0.000176673886400636
1.346,0.000897300706199644
1.347,0.00144821927669625
1.348,-0.000231132503714093
1.349,0.000793449389462353
1.35,0.00148811338007704
1.351,-0.000640838613037431
1.352,-8.73870835960133e-05
1.353,0.000840309129941375
1.354,-0.000792182909989947
1.355,9.56192001666523e-05
1.356,0.00133423612417971
1.357,-0.000307121272058453
1.358,0.000178573605609245
1.359,0.00130004117842475
1.36,-7.21893299271414e-05
1.361,0.00071682738138179
1.362,0.00205232998503391
1.363,0.000455932610066156
1.364,0.000602210989129048
1.365,0.00173697659640482
1.366,0.000195671078486725
1.367,0.000279258723665521
1.368,0.00166795346515869
1.369,0.000261528011051837
1.37,0.000153244016161125
1.371,0.00119872282063227
1.372,-0.000414138787476759
1.373,-0.000608543386491078
1.374,0.000977722152697424
1.375,-7.09228504547355e-05
1.376,-0.00025582885342601
1.377,0.00137982938518633
1.378,0.000206436154002176
1.379,-0.00040590667090612
1.38,0.00150267789400971
1.381,0.000945426926151072
1.382,0.00026849364815007
1.383,0.00189148709203835
1.384,0.00100811766003517
1.385,-0.000108283994890712
1.386,0.00147734830456159
1.387,0.000849174486248216
1.388,-0.000216567989781424
1.389,0.00139186094017418
1.39,0.000886535630684193
1.391,-0.000711761463492167
1.392,0.000542053214189764
1.393,0.000272926326303491
1.394,-0.000894767747254832
1.395,0.000782051074210699
1.396,0.000789016711308932
1.397,-0.000499626151864163
1.398,0.000890335069101411
1.399,0.000789649951045135
1.4,-0.000337516779396196
1.401,0.0014792480237702
1.402,0.00161222836837283
1.403,8.92868028046223e-05
1.404,0.00136526487125366
1.405,0.00136969754940708
1.406,-0.000264694209732852
1.407,0.00103344724948329
1.408,0.00139186094017418
1.409,-0.000279891963401724
1.41,0.000861839280972276
1.411,0.000990386947421484
1.412,-0.00102774809185746
1.413,6.64901723013145e-05
1.414,0.000909332261187501
1.415,-0.000667434681957957
1.416,0.00039324187618206
1.417,0.00137159726861569
1.418,-0.000430603020618037
1.419,0.000212768551364206
1.42,0.001606529210747
1.421,0.000302055354168829
1.422,0.000822578417327691
1.423,0.00204029843004605
1.424,0.000333717340978978
1.425,0.000400840753016496
1.426,0.0017135467261653
1.427,0.000191238400333305
1.428,0.000250129695800183
1.429,0.0016913833353982
1.43,0.00020516967452977
1.431,-0.000347015375439241
1.432,0.00087956999358596
1.433,-0.000389442437764842
1.434,-0.000566749563901681
1.435,0.0011847915464358
1.436,0.000157043454578343
1.437,-0.000238731380548529
1.438,0.00129687497974373
1.439,0.000160842892995561
1.44,-0.000111450193571727
1.441,0.00190985104438823
1.442,0.000973922714280206
1.443,0.000250129695800183
1.444,0.00180283352896993
1.445,0.000728858936369647
1.446,-0.000133613584338832
1.447,0.00152420804504061
1.448,0.000760520923179797
1.449,-0.000184906002971275
1.45,0.00139249417991039
1.451,0.000323585505199731
1.452,-0.00100558470109036
1.453,0.000678199757473408
1.454,0.000278625483929318
1.455,-0.000725059497952429
1.456,0.00105054472236077
1.457,0.000749755847664346
1.458,-0.000614242544116905
1.459,0.000896034226727238
1.46,0.0010353469686919
1.461,2.02636715584958e-05
1.462,0.00155080411396114
1.463,0.00156980130604722
1.464,-4.11605828531947e-05
1.465,0.00109613798336738
1.466,0.00128800962343689
1.467,-0.000266593928941461
1.468,0.000947326645359681
1.469,0.00136209867257264
1.47,-0.000312187189948077
1.471,0.000317886347573904
1.472,0.000638305654092619
1.473,-0.000919464096966749
1.474,0.000103218077001088
1.475,0.0010157165368696
1.476,-0.00041857146563018
1.477,0.000410972588795744
1.478,0.00120062253984088
1.479,-0.000450866692176533
1.48,0.000515457145269238
1.481,0.00186932370127124
1.482,0.000301422114432626
1.483,0.000831443773634533
1.484,0.00184526059129553
1.485,4.68597404790216e-05
1.486,0.000421737664311195
1.487,0.00165148923201741
1.488,5.44586173134576e-05
1.489,0.000330551142297963
1.49,0.00160842892995561
1.491,-0.000400207513280293
1.492,-0.000551551810232809
1.493,0.000985954269268063
1.494,-0.000416038506685368
1.495,-0.000349548334384053
1.496,0.00137539670703291
1.497,4.43267815342097e-05
1.498,-0.000276725764720709
1.499,0.00131333921288501
1.5,0.000381210321194203
1.501,0.000327384943616948
1.502,0.00201560208033413
1.503,0.000894767747254832
1.504,0.00019883727716774
1.505,0.00165655514990704
1.506,0.000677566517737205
1.507,-6.33239736202995e-05
1.508,0.00154447171659911
1.509,0.000744056690038519
1.51,-0.000195037838750522
1.511,0.000954292282457914
1.512,4.93926994238336e-05
1.513,-0.00087323759622393
1.514,0.000801681506032992
1.515,0.000473030082943637
1.516,-0.000459732048483374
1.517,0.00113159940859475
1.518,0.000705429066130137
1.519,-0.000559150687067245
1.52,0.0012899093426455
1.521,0.00146974942772715
1.522,0.000132980344602629
1.523,0.00157866666235407
1.524,0.00145518491379448
1.525,-0.000221000667934845
1.526,0.00113286588806716
1.527,0.00130067441816095
1.528,-0.000269126887886273
1.529,0.00102584837264885
1.53,0.00128484342475588
1.531,-0.000783950793419308
1.532,0.000153244016161125
1.533,0.000723793018480023
1.534,-0.000814346300757052
1.535,0.000423637383519804
1.536,0.00123418424585964
1.537,-0.000380577081458
1.538,0.000465431206109201
1.539,0.00117465971065656
1.54,-0.000139945981700862
1.541,0.00104104612631772
1.542,0.00191998288016748
1.543,0.000261528011051837
1.544,0.000847274767039607
1.545,0.0016058959710108
1.546,-6.96563709823295e-05
1.547,0.000502159110808975
1.548,0.00157360074446444
1.549,-5.50918570496606e-05
1.55,0.000290657038917175
1.551,0.00106827543497445
1.552,-0.000764320361597015
1.553,-0.000447067253759315
1.554,0.00101951597528682
1.555,-0.000333084101242775
1.556,-0.0001057510359459
1.557,0.00141022489252407
1.558,-0.000114616392252742
1.559,-0.000289390559444769
1.56,0.00163882443729335
1.561,0.00066806792169416
1.562,0.000321685785991122
1.563,0.00198140713457917
1.564,0.000694030750878483
1.565,-6.77566517737205e-05
1.566,0.00161412808758143
1.567,0.000587013235460176
1.568,-0.000185539242707478
1.569,0.00153307340134745
1.57,0.000576248159944726
1.571,-0.000795982348407165
1.572,0.000692764271406077
1.573,6.58569325651115e-05
1.574,-0.000889701829365208
1.575,0.000982154830850845
1.576,0.000625007619632356
1.577,-0.000519889823422659
1.578,0.00103787992763671
1.579,0.00064907072960807
1.58,-0.000278625483929318
1.581,0.00164325711544677
1.582,0.00143492124223599
1.583,6.39572133565025e-05
1.584,0.00143618772170839
1.585,0.00116832731329453
1.586,-0.000258995052107025
1.587,0.00115059660068084
1.588,0.00119302366300644
1.589,-0.000252662654744995
1.59,0.00097898863216983
1.591,0.000704795826393934
1.592,-0.00101888273555062
1.593,0.000291290278653378
1.594,0.000716194141645587
1.595,-0.000659202565387318
1.596,0.000647171010399461
1.597,0.00114869688147223
1.598,-0.00053065489893811
1.599,0.00049266051476593
1.6,0.00149001309928565
1.601,0.000191871640069508
1.602,0.00110057066152081
1.603,0.00190035244834519
1.604,9.68856796390583e-05
1.605,0.000619941701742732
1.606,0.00159386441602294
1.607,-4.87594596876306e-05
1.608,0.000485694877667697
1.609,0.00163502499887613
1.61,-9.49859604304493e-05
1.611,-0.000203903195057364
1.612,0.000887168870420396
1.613,-0.000576248159944726
1.614,-0.000301422114432626
1.615,0.00127281186976802
1.616,-2.78625483929318e-05
1.617,-6.33239736202995e-07
1.618,0.00140072629648103
1.619,4.17938225893977e-05
1.62,0.000264060969996649
1.621,0.00212958523285067
1.622,0.000866271959125697
1.623,0.00058131407783435
1.624,0.00201876827901515
1.625,0.000644004811718446
1.626,0.000248863216327777
1.627,0.00187185666021605
1.628,0.000758621203971188
1.629,0.000246963497119168
1.63,0.00178890225477346
1.631,0.000307121272058453
1.632,-0.000564849844693072
1.633,0.00120062253984088
1.634,0.00041857146563018
1.635,-0.0002115020718918
1.636,0.00165718838964324
1.637,0.000924530014856373
1.638,-0.000150711057216313
1.639,0.0015438384768629
1.64,0.00135006711758479
1.641,0.000530021659201907
1.642,0.00215301510309018
1.643,0.00174330899376685
1.644,0.000302688593905032
1.645,0.0016274261220417
1.646,0.00138869474149317
1.647,-4.55932610066156e-05
1.648,0.00133423612417971
1.649,0.00130510709631437
1.65,-0.000310920710475671
1.651,0.000509757987643411
1.652,0.00045023345244033
1.653,-0.00101698301634201
1.654,0.000279891963401724
1.655,0.000756088245026376
1.656,-0.000676300038264799
1.657,0.000448966972967924
1.658,0.000834609972315548
1.659,-0.000760520923179797
1.66,0.000656036366706303
1.661,0.00161349484784523
1.662,-2.91290278653378e-05
1.663,0.000892868028046223
1.664,0.00154193875765429
1.665,-0.000321685785991122
1.666,0.000462898247164389
1.667,0.00139312741964659
1.668,-0.000297622676015408
1.669,0.000374877923832173
1.67,0.00131967161024704
1.671,-0.000820678698119082
1.672,-0.000512290946588223
1.673,0.000764320361597015
1.674,-0.000734558093995474
1.675,-0.000196937557959131
1.676,0.00125951383530776
1.677,-0.00025582885342601
1.678,-0.000145011899590486
1.679,0.00124051664322167
1.68,0.00016274261220417
1.681,0.000500892631336569
1.682,0.00191048428412444
1.683,0.000521156302895065
1.684,0.000272926326303491
1.685,0.00157486722393685
1.686,0.000279258723665521
1.687,1.83639523498869e-05
1.688,0.0015432052371267
1.689,0.000367279046997737
1.69,-0.000180473324817854
1.691,0.000947326645359681
1.692,-0.000308387751530859
1.693,-0.000813713061020849
1.694,0.000942260727470057
1.695,0.000179206845345448
1.696,-0.000436302178243864
1.697,0.00125634763662674
1.698,0.000368545526470143
1.699,-0.000561050406275854
1.7,0.00153307340134745
1.701,0.00121328733456494
1.702,8.54873643874043e-05
1.703,0.00176737210374256
1.704,0.00117719266960137
1.705,-0.000282424922346536
1.706,0.00135829923415542
1.707,0.00109803770257599
1.708,-0.000326118464144542
1.709,0.00126711271214219
1.71,0.00105434416077799
1.711,-0.000930862412218403
1.712,0.000386276239083827
1.713,0.00057498168047232
1.714,-0.000901733384353065
1.715,0.000675033558792393
1.716,0.00110500333967423
1.717,-0.000530021659201907
1.718,0.000648437489871867
1.719,0.00112336729202411
1.72,-0.000146911618799095
1.721,0.00127091215055941
1.722,0.00185475918733857
1.723,0.000182373044026463
1.724,0.00100938413950757
1.725,0.00156283566894899
1.726,-8.73870835960133e-05
1.727,0.00072949217610585
1.728,0.00155966947026798
1.729,-4.05273431169917e-05
1.73,0.000480628959778073
1.731,0.000949859604304493
1.732,-0.000789649951045135
1.733,-0.000171607968511012
1.734,0.000989120467949078
1.735,-0.000353981012537474
1.736,0.000199470516903943
1.737,0.00136399839178125
1.738,-0.000224800106352063
1.739,6.83898915099235e-05
1.74,0.00174457547323925
1.741,0.00057498168047232
1.742,0.000663635243540739
1.743,0.0020497970260891
1.744,0.000486961357140103
1.745,0.000247596736855371
1.746,0.0017547073090185
1.747,0.000401473992752699
1.748,0.000127914426713005
1.749,0.00175913998717192
1.75,0.00034891509464785
1.751,-0.000601577749392845
1.752,0.000916297898285734
1.753,-0.000117149351197554
1.754,-0.000663635243540739
1.755,0.00123798368427686
1.756,0.000430603020618037
1.757,-0.000376777643040782
1.758,0.00124178312269407
1.759,0.000486961357140103
1.76,-4.93926994238336e-05
1.761,0.00190858456491583
1.762,0.00125128171873712
1.763,0.000202003475848755
1.764,0.0016692199446311
1.765,0.000991020187157687
1.766,-0.000133613584338832
1.767,0.00142985532434636
1.768,0.00103154753027468
1.769,-0.000157043454578343
1.77,0.0012044219782581
1.771,0.000476196281624652
1.772,-0.000958091720875132
1.773,0.000609809865963484
1.774,0.000615509023589311
1.775,-0.000571182242055102
1.776,0.00099798582425592
1.777,0.0010568771197228
1.778,-0.000517356864477847
1.779,0.000868804918070509
1.78,0.00151850888741478
1.781,0.000210235592419394
1.782,0.00141465757067749
1.783,0.00185729214628338
1.784,6.26907338840965e-05
1.785,0.000970123275862989
1.786,0.00161602780679004
1.787,-5.76248159944726e-05
1.788,0.000844108568358592
1.789,0.00168125149961895
1.79,-0.000174140927455824
1.791,9.49859604304493e-05
1.792,0.000927062973801185
1.793,-0.000642105092509837
1.794,4.87594596876306e-05
1.795,0.00134690091890377
1.796,-0.000120948789614772
1.797,0.000298255915751611
1.798,0.00141212461173268
1.799,-0.000105117796209697
1.8,0.000593978872558409
1.801,0.00215871426071601
1.802,0.000606010427546266
1.803,0.000738357532412692
1.804,0.00195924374381207
1.805,0.000322952265463528
1.806,0.000333717340978978
1.807,0.00179396817266309
1.808,0.000378677362249391
1.809,0.000248863216327777
1.81,0.00159893033391256
1.811,-0.000187438961916087
1.812,-0.000633239736202995
1.813,0.00104421232499874
1.814,-3.29284662825557e-05
1.815,-0.000307754511794656
1.816,0.0014596175919479
1.817,0.000398307794071684
1.818,-0.000311553950211874
1.819,0.00137792966597772
1.82,0.000881469712794569
1.821,0.000381210321194203
1.822,0.00198330685378778
1.823,0.00121265409482874
1.824,0.00015641021484214
1.825,0.00159893033391256
1.826,0.000984054550059454
1.827,-4.17938225893977e-05
1.828,0.00152357480530441
1.829,0.00106827543497445
1.83,-0.000267227168677664
1.831,0.000827644335217315
1.832,0.000398307794071684
1.833,-0.000787116992100323
1.834,0.000839675890205172
1.835,0.00087323759622393
1.836,-0.000383743280139015
1.837,0.00108157346943472
1.838,0.00100811766003517
1.839,-0.00043756865771627
1.84,0.00139249417991039
1.841,0.00185285946812996
1.842,0.000214668270572815
1.843,0.00151597592846997
1.844,0.00173507687719621
1.845,-0.000109550474363118
1.846,0.00110500333967423
1.847,0.00167301938304831
1.848,-8.16879259701864e-05
1.849,0.000994186385838702
1.85,0.00153117368213884
1.851,-0.000694663990614686
1.852,0.000103851316737291
1.853,0.00109360502442257
1.854,-0.000536354056563937
1.855,0.000413505547740556
1.856,0.00159703061470395
1.857,-0.000138679502228456
1.858,0.000333084101242775
1.859,0.00157803342261786
1.86,0.000351448053592662
1.861,0.000991020187157687
1.862,0.00224420162510341
1.863,0.000660469044859724
1.864,0.000694663990614686
1.865,0.00190035244834519
1.866,0.000433135979562849
1.867,0.000454032890857547
1.868,0.00187122342047985
1.869,0.000530021659201907
1.87,0.000173507687719621
1.871,0.0011847915464358
1.872,-0.00016274261220417
1.873,-0.000375511163568376
1.874,0.00125508115715434
1.875,0.000328651423089354
1.876,2.78625483929318e-05
1.877,0.00154890439475253
1.878,0.00043123626035424
1.879,-5.12924186324426e-05
1.88,0.00194847866829662
1.881,0.00124874875979231
1.882,0.000515457145269238
1.883,0.00212008663680763
1.884,0.00110816953835524
1.885,0.000100051878320073
1.886,0.00175724026796331
1.887,0.00102774809185746
1.888,3.79943841721797e-06
1.889,0.00170088193144124
1.89,0.000906799302242689
1.891,-0.000727592456897241
1.892,0.000851074205456825
1.893,0.000540786734717358
1.894,-0.00066173552433213
1.895,0.00115502927883426
1.896,0.00107207487339167
1.897,-0.000379310601985594
1.898,0.00106447599655723
1.899,0.00112906644964994
1.9,4.36935417980067e-05
1.901,0.00169771573276023
1.902,0.00182942959789045
1.903,0.000255195613689807
1.904,0.00135703275468302
1.905,0.00152040860662339
1.906,-4.36935417980067e-05
1.907,0.00109043882574156
1.908,0.0015216750860958
1.909,-3.03955073377438e-05
1.91,0.000761154162916
1.911,0.000866271959125697
1.912,-0.000799781786824383
1.913,0.000204536434793567
1.914,0.00102078245475923
1.915,-0.000369178766206346
1.916,0.000557250967858636
1.917,0.00136843106993467
1.918,-0.000345748895966835
1.919,0.000417304986157774
1.92,0.00184272763235072
1.921,0.000436935417980067
1.922,0.000918197617494343
1.923,0.00204853054661669
1.924,0.000240631099757138
1.925,0.000426803582200819
1.926,0.00174394223350305
1.927,0.000162109372467967
1.928,0.00030015563496022
1.929,0.00176103970638053
1.93,8.23211657063894e-06
1.931,-0.00053065489893811
1.932,0.000897933945935847
1.933,-0.000411605828531947
1.934,-0.000516090385005441
1.935,0.0012905425823817
1.936,0.000145011899590486
1.937,-0.000275459285248303
1.938,0.00126457975319738
1.939,0.000207069393738379
1.94,9.87853988476672e-05
1.941,0.00195291134645004
1.942,0.000882102952530772
1.943,0.000195037838750522
1.944,0.00165592191017083
1.945,0.000604110708337657
1.946,-0.000174774167192027
1.947,0.00146594998930993
1.948,0.000675666798528596
1.949,-0.000218467708990033
1.95,0.00116579435434971
1.951,7.53555286081564e-05
1.952,-0.00103851316737291
1.953,0.000654136647497694
1.954,0.000303321833641235
1.955,-0.000656036366706303
1.956,0.00101888273555062
1.957,0.000682632435626829
1.958,-0.00066806792169416
1.959,0.000937194809580433
1.96,0.00123798368427686
1.961,8.86535630684193e-05
1.962,0.00146911618799095
1.963,0.00148621366086843
1.964,-0.000143112180381877
1.965,0.00103977964684532
1.966,0.00125001523926471
1.967,-0.000271026607094882
1.968,0.000939727768525245
1.969,0.00131460569235742
1.97,-0.000519256583686456
1.971,0.000157676694314546
1.972,0.000607276907018672
1.973,-0.000935295090371824
1.974,0.000208969112946988
1.975,0.00107334135286408
1.976,-0.000487594596876306
1.977,0.000398307794071684
1.978,0.0011410980046378
1.979,-0.000453399651121345
1.98,0.000762420642388406
1.981,0.00194911190803282
1.982,0.00018807220165229
1.983,0.000793449389462353
1.984,0.00173824307587722
1.985,-0.000102584837264885
1.986,0.000377410882776985
1.987,0.00164009091676576
1.988,-3.54614252273677e-05
1.989,0.000269760127622476
1.99,0.00137919614545012
1.991,-0.000661102284595927
1.992,-0.000608543386491078
1.993,0.000963157638764756
1.994,-0.000407806390114729
1.995,-0.000286224360763754
1.996,0.00138426206333975
1.997,-2.65960689205258e-05
1.998,-0.000379310601985594
1.999,0.00135703275468302
2,0.000548385611551794
2.001,0.000300788874696423
2.002,0.00191998288016748
2.003,0.000798515307351977
2.004,-2.15301510309018e-05
2.005,0.00151344296952516
2.006,0.000597778310975627
2.007,-0.000203269955321161
2.008,0.001438087440917
2.009,0.00069972990850431
2.01,-0.000507858268434802
2.011,0.000676933278001002
2.012,2.78625483929318e-05
2.013,-0.000946693405623478
2.014,0.00076748656027803
2.015,0.000531288138674313
2.016,-0.000523056022103674
2.017,0.000982154830850845
2.018,0.000606643667282469
2.019,-0.000513557426060629
2.02,0.00140769193357926
2.021,0.00142985532434636
2.022,6.14242544116905e-05
2.023,0.00147671506482538
2.024,0.00124621580084749
2.025,-0.000285591121027551
2.026,0.00113349912780336
2.027,0.00121328733456494
2.028,-0.000304588313113641
2.029,0.0010581435991952
2.03,0.0010144500573972
2.031,-0.00102078245475923
2.032,0.000189971920860899
2.033,0.000676933278001002
2.034,-0.000862472520708479
2.035,0.000502792350545178
2.036,0.00120252225904949
2.037,-0.000560417166539651
2.038,0.000355880731746083
2.039,0.00127787778765764
2.04,0
2.041,0.00100495146135415
2.042,0.00191111752386064
2.043,0.000198204037431537
2.044,0.000633239736202995
2.045,0.00159006497760572
2.046,-1.13983152516539e-05
2.047,0.000419837945102586
2.048,0.0015862655391885
2.049,7.02896107185325e-05
2.05,4.81262199514276e-05
2.051,0.000868171678334306
2.052,-0.000627540578577168
2.053,-0.000412872308004353
2.054,0.00104547880447114
2.055,-0.00013741302275605
2.056,-4.24270623256007e-05
2.057,0.00132030484998324
2.058,-8.92868028046223e-05
2.059,-9.05532822770283e-05
2.06,0.0018389281939335
2.061,0.000742790210566113
2.062,0.000404640191433714
2.063,0.00195861050407586
2.064,0.000571182242055102
2.065,-2.08969112946988e-05
2.066,0.00164705655386399
2.067,0.000538253775772546
2.068,-0.000132980344602629
2.069,0.00159893033391256
2.07,0.00034258269728582
2.071,-0.00091756437775814
2.072,0.000789649951045135
2.073,8.67538438598103e-05
2.074,-0.000773185717903857
2.075,0.00115376279936186
2.076,0.000638938893828822
2.077,-0.000527488700257095
2.078,0.00106004331840381
2.079,0.000769386279486639
2.08,-2.21633907671048e-05
2.081,0.00174077603482203
2.082,0.00142668912566535
2.083,7.91549670253744e-05
2.084,0.0013950271388552
2.085,0.00116516111461351
2.086,-0.00020516967452977
2.087,0.00120125577957708
2.088,0.00121835325245456
2.089,-0.00021783446925383
2.09,0.000800415026560586
2.091,0.000572448721527508
2.092,-0.00096189115929235
2.093,0.000347015375439241
2.094,0.000838409410732766
2.095,-0.00051165770685202
2.096,0.000698463429031904
2.097,0.00117592619012896
2.098,-0.000495193473710742
2.099,0.00064907072960807
2.1,0.00176040646664433
2.101,0.000292556758125784
2.102,0.00109803770257599
2.103,0.00189528653045556
2.104,7.21893299271414e-05
2.105,0.000666801442221754
2.106,0.00164135739623816
2.107,-1.26647947240599e-06
2.108,0.000543952933398373
2.109,0.00164325711544677
2.11,-0.000289390559444769
2.111,-0.000288124079972363
2.112,0.00090489958303408
2.113,-0.00058574675598777
2.114,-0.000171607968511012
2.115,0.0013526000765296
2.116,-0.000100051878320073
2.117,-1.70974728774809e-05
2.118,0.00133360288444351
2.119,8.86535630684193e-06
2.12,0.000414772027212962
2.121,0.00209159084867849
2.122,0.000641471852773634
2.123,0.000407173150378526
2.124,0.00180663296738715
2.125,0.000383110040402812
2.126,2.34298702395108e-05
2.127,0.00166605374595008
2.128,0.000455299370329953
2.129,-8.73870835960133e-05
2.13,0.00127661130818524
2.131,-0.00017540740692823
2.132,-0.00090489958303408
2.133,0.000889701829365208
2.134,0.00014374542011808
2.135,-0.000536354056563937
2.136,0.00125254819820952
2.137,0.000495193473710742
2.138,-0.000616775503061717
2.139,0.00122848508823381
2.14,0.00113223264833096
2.141,9.81521591114642e-05
2.142,0.001690750095662
2.143,0.00131397245262121
2.144,-0.000199470516903943
2.145,0.00125571439689054
2.146,0.00111323545624487
2.147,-0.000326118464144542
2.148,0.00113666532648438
2.149,0.00118099210801859
2.15,-0.00067440031905619
2.151,0.000290657038917175
2.152,0.000503425590281381
2.153,-0.000984687789795657
2.154,0.000409072869587135
2.155,0.000999885543464529
2.156,-0.000522422782367471
2.157,0.000555351248650027
2.158,0.00101065061897998
2.159,-0.000425537102728413
2.16,0.0010150832971334
2.161,0.00179903409055271
2.162,0.000138679502228456
2.163,0.000994819625574905
2.164,0.00154447171659911
2.165,-0.000176673886400636
2.166,0.000633239736202995
2.167,0.00147481534561678
2.168,-0.000164009091676576
2.169,0.000528121939993298
2.17,0.00115249631988945
2.171,-0.00087323759622393
2.172,-0.000312187189948077
2.173,0.000878303514113554
2.174,-0.000599678030184236
2.175,1.32980344602629e-05
2.176,0.00134183500101415
2.177,-0.000296356196543002
2.178,-0.000139945981700862
2.179,0.00143365476276358
2.18,0.000352081293328865
2.181,0.000511024467115817
2.182,0.00197000881932752
2.183,0.000514823905533035
2.184,0.000117782590933757
2.185,0.00159196469681433
2.186,0.000337516779396196
2.187,-6.20574941478935e-05
2.188,0.00154003903844568
2.189,0.000425537102728413
2.19,-0.000495193473710742
2.191,0.000736457813204083
2.192,-0.000220367428198642
2.193,-0.000832710253106939
2.194,0.000927062973801185
2.195,0.000297622676015408
2.196,-0.000440734856397285
2.197,0.00111830137413449
2.198,0.000337516779396196
2.199,-0.000391975396709654
2.2,0.00164579007439158
2.201,0.00116896055303073
2.202,9.43527206942463e-05
2.203,0.00165972134858805
2.204,0.000962524399028553
2.205,-0.000300788874696423
2.206,0.00132030484998324
2.207,0.000958724960611335
2.208,-0.000349548334384053
2.209,0.00123608396506825
2.21,0.000686431874044047
2.211,-0.00112400053176032
2.212,0.000407806390114729
2.213,0.000498359672391757
2.214,-0.000876403794904945
2.215,0.000752922046345361
2.216,0.00101951597528682
2.217,-0.000632606496466792
2.218,0.000597145071239424
2.219,0.00117782590933757
2.22,-2.78625483929318e-05
2.221,0.00124241636243028
2.222,0.00175660702822711
2.223,6.14242544116905e-05
2.224,0.000850440965720622
2.225,0.00146594998930993
2.226,-0.00015641021484214
2.227,0.000667434681957957
2.228,0.00149571225691147
2.229,-0.000126647947240599
2.23,0.000185539242707478
2.231,0.000770652758959045
2.232,-0.000814979540493255
2.233,-0.000195037838750522
2.234,0.00104484556473494
2.235,-0.000315986628365295
2.236,0.000140579221437065
2.237,0.00129370878106272
2.238,-0.000295089717070596
2.239,0.000145011899590486
2.24,0.00188895413309353
2.241,0.000527488700257095
2.242,0.000558517447331042
2.243,0.00191998288016748
2.244,0.000309654231003265
2.245,0.00013741302275605
2.246,0.00164199063597437
2.247,0.000296989436279205
2.248,4.49600212704127e-05
2.249,0.00159703061470395
2.25,-2.84957881291348e-05
2.251,-0.000788383471572729
2.252,0.000840942369677578
2.253,-0.000210868832155597
2.254,-0.000588912954668785
2.255,0.00125508115715434
2.256,0.000290657038917175
2.257,-0.000434402459035255
2.258,0.00117655942986516
2.259,0.000481895439250479
2.26,9.05532822770283e-05
2.261,0.00188452145494011
2.262,0.00107334135286408
2.263,4.62265007428186e-05
2.264,0.00152420804504061
2.265,0.000833343492843142
2.266,-0.000266593928941461
2.267,0.00136906430967088
2.268,0.000924530014856373
2.269,-0.000331184382034166
2.27,0.000877037034641148
2.271,0.000265960689205258
2.272,-0.00107650755154509
2.273,0.000538253775772546
2.274,0.000633872975939198
2.275,-0.000644638051454649
2.276,0.000853607164401637
2.277,0.000933395371163215
2.278,-0.00068073271641822
2.279,0.00087323759622393
2.28,0.00161222836837283
2.281,8.29544054425924e-05
2.282,0.00125508115715434
2.283,0.00169581601355162
2.284,-0.000191238400333305
2.285,0.000809913622603631
2.286,0.00149507901717527
2.287,-0.000238731380548529
2.288,0.000677566517737205
2.289,0.00150457761321832
2.29,-0.000615509023589311
2.291,-0.000196304318222928
2.292,0.0008244781365363
2.293,-0.000795349108670962
2.294,-3.10287470739468e-05
2.295,0.00129687497974373
2.296,-0.000301422114432626
2.297,7.09228504547355e-05
2.298,0.0012474822803199
2.299,-9.81521591114642e-05
2.3,0.000596511831503221
2.301,0.00199660488824804
2.302,0.00045466613059375
2.303,0.000516723624741644
2.304,0.0016698531843673
2.305,0.000176673886400636
2.306,0.000182373044026463
2.307,0.00157866666235407
2.308,0.00023683166133992
2.309,9.11865220132313e-05
2.31,0.00114679716226362
2.311,-0.000457199089538562
2.312,-0.00068706511378025
2.313,0.000916297898285734
2.314,-0.000108917234626915
2.315,-0.000325485224408339
2.316,0.00131650541156603
2.317,0.000174774167192027
2.318,-0.000462898247164389
2.319,0.00143048856408257
2.32,0.000892868028046223
2.321,0.000207702633474582
2.322,0.00186615750259023
2.323,0.00100051878320073
2.324,-0.000176040646664433
2.325,0.00145201871511347
2.326,0.000861839280972276
2.327,-0.000288757319708566
2.328,0.00135829923415542
2.329,0.000929595932745997
2.33,-0.000756088245026376
2.331,0.000485694877667697
2.332,0.000303321833641235
2.333,-0.000977722152697424
2.334,0.000681365956154423
2.335,0.000831443773634533
2.336,-0.000542053214189764
2.337,0.000797248827879571
2.338,0.000832710253106939
2.339,-0.000392608636445857
2.34,0.00133930204206933
2.341,0.00163059232072271
2.342,7.15560901909384e-05
2.343,0.00124114988295787
2.344,0.00136843106993467
2.345,-0.000269760127622476
2.346,0.00090489958303408
2.347,0.00136209867257264
2.348,-0.000264694209732852
2.349,0.000777618396057278
2.35,0.000982154830850845
2.351,-0.00100875089977137
2.352,-2.15301510309018e-05
2.353,0.000848541246512013
2.354,-0.000677566517737205
2.355,0.000309020991267062
2.356,0.00131207273341261
2.357,-0.000434402459035255
2.358,0.000128547666449208
2.359,0.00149254605823046
2.36,0.00026216125078804
2.361,0.000761154162916
2.362,0.00196367642196549
2.363,0.000311553950211874
2.364,0.000333717340978978
2.365,0.00162425992336068
2.366,0.000147544858535298
2.367,0.000172241208247215
2.368,0.00160209653259358
2.369,0.000182373044026463
2.37,-0.00037424468409597
2.371,0.000809280382867428
2.372,-0.00043123626035424
2.373,-0.00063640593488401
2.374,0.00108917234626915
2.375,0.000102584837264885
2.376,-0.000292556758125784
2.377,0.00124874875979231
2.378,0.000130447385657817
2.379,-0.000199470516903943
2.38,0.0018395614336697
2.381,0.000952392563249305
2.382,0.000191238400333305
2.383,0.00177117154215978
2.384,0.000733924854259271
2.385,-0.000193771359278117
2.386,0.00146278379062892
2.387,0.000745323169510925
2.388,-0.000245063777910559
2.389,0.00135449979573821
2.39,0.000357780450954692
2.391,-0.0010562438799866
2.392,0.000595245352030815
2.393,0.000260261531579431
2.394,-0.000774452197376263
2.395,0.000981521591114642
2.396,0.000750389087400549
2.397,-0.000619308462006529
2.398,0.000842208849149984
2.399,0.000993553146102499
2.4,2.53295894481198e-06
2.401,0.00151344296952516
2.402,0.00152990720266644
2.403,-3.67279046997737e-05
2.404,0.00111703489466208
2.405,0.00128231046581107
2.406,-0.000282424922346536
2.407,0.00094922636456829
2.408,0.00135133359705719
2.409,-0.000324851984672136
2.41,0.000362846368844316
2.411,0.000654769887233897
2.412,-0.000977722152697424
2.413,8.23211657063894e-05
2.414,0.00103091429053848
2.415,-0.000478096000833261
2.416,0.000379310601985594
2.417,0.00125444791741813
2.418,-0.000483161918722885
2.419,0.000454032890857547
2.42,0.00194721218882421
2.421,0.000328018183353151
2.422,0.000784584033155511
2.423,0.0019244155583209
2.424,7.34558093995474e-05
2.425,0.000340682978077211
2.426,0.00169771573276023
2.427,9.37194809580433e-05
2.428,0.000241897579229544
2.429,0.00165212247175361
2.43,-0.000310287470739468
2.431,-0.000632606496466792
2.432,0.000965057357973365
2.433,-0.000371078485414955
2.434,-0.000400207513280293
2.435,0.0013962936183276
2.436,0.000134880063811238
2.437,-0.000312187189948077
2.438,0.0012905425823817
2.439,0.000419837945102586
2.44,0.000271659846831085
2.441,0.00197190853853613
2.442,0.000935928330108027
2.443,0.000162109372467967
2.444,0.00158816525839711
2.445,0.000683265675363032
2.446,-0.000119049070406163
2.447,0.00145455167405828
2.448,0.000735191333731677
2.449,-0.000223533626879657
2.45,0.000903633103561674
2.451,3.10287470739468e-05
2.452,-0.000929595932745997
2.453,0.000699096668768107
2.454,0.000417938225893977
2.455,-0.00051165770685202
2.456,0.00105181120183317
2.457,0.000659202565387318
2.458,-0.000616142263325514
2.459,0.00118099210801859
2.46,0.00139692685806381
2.461,7.40890491357504e-05
2.462,0.00151660916820617
2.463,0.00142795560513775
2.464,-0.000283058162082739
2.465,0.0010784072707537
2.466,0.00129117582211791
2.467,-0.000338150019132399
2.468,0.000961257919556147
2.469,0.0013108062539402
2.47,-0.000820678698119082
2.471,5.88912954668785e-05
2.472,0.000713027942964573
2.473,-0.00090489958303408
2.474,0.0002748260455121
2.475,0.00121772001271836
2.476,-0.000445800774286909
2.477,0.000323585505199731
2.478,0.00117022703250313
2.479,-0.000191238400333305
2.48,0.000884635911475584
2.481,0.00190605160597102
2.482,0.000260261531579431
2.483,0.000725692737688632
2.484,0.00159386441602294
2.485,-2.27966305033078e-05
2.486,0.000419837945102586
2.487,0.00156220242921279
2.488,2.53295894481198e-05
2.489,0.000265327449469055
2.49,0.00106700895550205
2.491,-0.000704795826393934
2.492,-0.00049899291212796
2.493,0.000944793686414869
2.494,-0.000321685785991122
2.495,-0.000147544858535298
2.496,0.00135576627521061
2.497,-8.04214464977804e-05
2.498,-0.000311553950211874
2.499,0.00156600186763001
2.5,0.000682632435626829
2.501,0.000318519587310107
2.502,0.00193454739410015
2.503,0.000708595264811152
2.504,-9.49859604304493e-05
2.505,0.00154003903844568
2.506,0.000578147879153335
2.507,-0.000210235592419394
2.508,0.00147798154429779
2.509,0.000605377187810063
2.51,-0.000775085437112466
2.511,0.000637672414356416
2.512,4.93926994238336e-05
2.513,-0.000921997055911561
2.514,0.000902999863825471
2.515,0.000590812673877394
2.516,-0.000555351248650027
2.517,0.000966323837445771
2.518,0.000593345632822206
2.519,-0.000351448053592662
2.52,0.00157676694314546
2.521,0.00140832517331546
2.522,2.34298702395108e-05
2.523,0.00140832517331546
2.524,0.00115946195698768
2.525,-0.000311553950211874
2.526,0.0010993041820484
2.527,0.00118985746432543
2.528,-0.000292556758125784
2.529,0.000944793686414869
2.53,0.000731391895314459
2.531,-0.00105054472236077
2.532,0.00022416686661586
2.533,0.00071239470322837
2.534,-0.000663635243540739
2.535,0.000624374379896153
2.536,0.00119808958089607
2.537,-0.000455299370329953
2.538,0.00052432250157608
2.539,0.00154953763448873
2.54,0.000315353388629092
2.541,0.00121138761535633
2.542,0.00203269955321161
2.543,0.000300788874696423
2.544,0.000827011095481112
2.545,0.00180346676870613
2.546,0.000196937557959131
2.547,0.000776985156321075
2.548,0.00195924374381207
2.549,0.000269760127622476
2.55,0.00019883727716774
2.551,0.00126014707504396
2.552,-0.000260261531579431
2.553,3.60946649635707e-05
2.554,0.00168061825988275
2.555,0.00034891509464785
2.556,0.000355880731746083
2.557,0.00181423184422158
2.558,0.000390075677501045
2.559,0.000559783926803448
2.56,0.00254499049979984
2.561,0.00125634763662674
2.562,0.000889701829365208
2.563,0.00243987270359014
2.564,0.00101824949581442
2.565,0.000446434014023112
2.566,0.002115020718918
2.567,0.000980888351378439
2.568,0.000279258723665521
2.569,0.00185602566681098
2.57,0.000379310601985594
2.571,-0.000723793018480023
2.572,0.00101698301634201
2.573,0.000253929134217401
2.574,-0.000578781118889538
2.575,0.00127027891082321
2.576,0.000637672414356416
2.577,-0.000595245352030815
2.578,0.00100368498188175
2.579,0.000876403794904945
2.58,-8.86535630684193e-06
2.581,0.00159639737496775
2.582,0.00131523893209362
2.583,-0.000138046262492253
2.584,0.00115566251857047
2.585,0.00106320951708483
2.586,-0.000333717340978978
2.587,0.00102774809185746
2.588,0.00112653349070513
2.589,-0.000422370904047398
2.59,0.00038690947882003
2.591,0.000415405266949165
2.592,-0.00100115202293694
2.593,0.000269126887886273
2.594,0.000839675890205172
2.595,-0.000528121939993298
2.596,0.000550918570496606
2.597,0.000966323837445771
2.598,-0.000615509023589311
2.599,0.000744056690038519
2.6,0.00175850674743572
2.601,0.000154510495633531
2.602,0.00104801176341596
2.603,0.00173001095930658
2.604,-0.000152610776424922
2.605,0.000608543386491078
2.606,0.00158056638156268
2.607,-0.000155143735369734
2.608,0.000468597404790216
2.609,0.00149317929796666
2.61,-0.000673767079319987
2.611,-0.000425537102728413
2.612,0.000927696213537388
2.613,-0.000626274099104762
2.614,-0.000176673886400636
2.615,0.00138426206333975
2.616,-0.000160209653259358
2.617,-0.000168441769829997
2.618,0.00128800962343689
2.619,0.000189971920860899
2.62,0.000428070061673225
2.621,0.00196304318222928
2.622,0.000647804250135664
2.623,0.000275459285248303
2.624,0.00161412808758143
2.625,0.000392608636445857
2.626,-1.77307126136839e-05
2.627,0.00150837705163553
2.628,0.000447700493495518
2.629,-0.000177940365873042
2.63,0.000918830857230546
2.631,-0.000262794490524243
2.632,-0.000852340684929231
2.633,0.000856773363082652
2.634,0.00020516967452977
2.635,-0.0004439010550783
2.636,0.00119175718353404
2.637,0.000395774835126872
2.638,-0.000568016043374087
2.639,0.00144378659854283
2.64,0.00121898649219077
2.641,8.92868028046223e-05
2.642,0.00170214841091365
2.643,0.0011841583066996
2.644,-0.000284324641555145
2.645,0.00129560850027133
2.646,0.00109233854495017
2.647,-0.000330551142297963
2.648,0.00119935606036847
2.649,0.00104991148262457
2.65,-0.000937194809580433
2.651,0.000305854792586047
2.652,0.000538887015508749
2.653,-0.00094289396720626
2.654,0.000580680838098147
2.655,0.00106067655814002
2.656,-0.000558517447331042
2.657,0.000572448721527508
2.658,0.00105561064025039
2.659,-0.000223533626879657
2.66,0.00119175718353404
2.661,0.00181106564554057
2.662,0.000136146543283644
2.663,0.000952392563249305
2.664,0.00151977536688719
2.665,-0.000139945981700862
2.666,0.000669334401166566
2.667,0.00153497312055606
2.668,-7.40890491357504e-05
2.669,0.000459098808747171
2.67,0.000981521591114642
2.671,-0.000781417834474496
2.672,-0.00018807220165229
2.673,0.00100178526267314
2.674,-0.000365379327789128
2.675,0.000147544858535298
2.676,0.00136589811098986
2.677,-0.000191238400333305
2.678,3.73611444359767e-05
2.679,0.0017135467261653
2.68,0.000595878591767018
2.681,0.000647804250135664
2.682,0.00204156490951846
2.683,0.000523056022103674
2.684,0.00023049926397789
2.685,0.00172431180168076
2.686,0.000403373711961308
2.687,0.000108283994890712
2.688,0.00172747800036177
2.689,0.00037424468409597
2.69,-0.000558517447331042
2.691,0.000945426926151072
2.692,-8.92868028046223e-05
2.693,-0.000619941701742732
2.694,0.00131903837051084
2.695,0.000502159110808975
2.696,-0.000298889155487814
2.697,0.00138742826202076
2.698,0.00056864928311029
2.699,-3.73611444359767e-05
2.7,0.00204726406714428
2.701,0.00137286374808809
2.702,0.000204536434793567
2.703,0.00177433774084079
2.704,0.00111893461387069
2.705,-0.000127914426713005
2.706,0.00151470944899756
2.707,0.00118922422458922
2.708,-0.000127914426713005
2.709,0.00130510709631437
2.71,0.000681365956154423
2.711,-0.000904266343297877
2.712,0.000664268483276942
2.713,0.000778251635793481
2.714,-0.000522422782367471
2.715,0.00103091429053848
2.716,0.00121582029350975
2.717,-0.000445167534550706
2.718,0.000859939561763667
2.719,0.00162172696441587
2.72,0.000293189997861987
2.721,0.00142162320777572
2.722,0.00197000881932752
2.723,0.000167175290357591
2.724,0.000972656234807801
2.725,0.00170468136985846
2.726,3.16619868101498e-05
2.727,0.000825744616008706
2.728,0.00172937771957038
2.729,-7.02896107185325e-05
2.73,9.62524399028553e-05
2.731,0.000965057357973365
2.732,-0.000555351248650027
2.733,4.05273431169917e-05
2.734,0.00136969754940708
2.735,-3.54614252273677e-05
2.736,0.000317886347573904
2.737,0.00145011899590486
2.738,-3.60946649635707e-05
2.739,0.000587646475196379
2.74,0.00218847652831755
2.741,0.00069972990850431
2.742,0.000789016711308932
2.743,0.00202066799822376
2.744,0.000407806390114729
2.745,0.000393875115918263
2.746,0.00187059018074365
2.747,0.000445800774286909
2.748,0.000279891963401724
2.749,0.00170531460959467
2.75,-0.000107017515418306
2.751,-0.000637039174620213
2.752,0.00110880277809144
2.753,2.53295894481198e-05
2.754,-0.000325485224408339
2.755,0.0015229415655682
2.756,0.00047999572004187
2.757,-0.000322319025727325
2.758,0.00142415616672054
2.759,0.000956192001666523
2.76,0.000362846368844316
2.761,0.00202636715584958
2.762,0.00133486936391591
2.763,0.000155776975105937
2.764,0.00160272977232978
2.765,0.00110690305888284
2.766,-2.65960689205258e-05
2.767,0.00151091001058035
2.768,0.00118605802590821
2.769,-0.000207702633474582
2.77,0.000803581225241601
2.771,0.00047366332267984
2.772,-0.000759254443707391
2.773,0.000770652758959045
2.774,0.000927696213537388
2.775,-0.00031915282704631
2.776,0.00105181120183317
2.777,0.00106637571576584
2.778,-0.000380577081458
2.779,0.00135196683679339
2.78,0.00191491696227786
2.781,0.000317253107837701
2.782,0.00153180692187505
2.783,0.00180853268659575
2.784,-1.96304318222928e-05
2.785,0.00110816953835524
2.786,0.00170848080827568
2.787,-2.65960689205258e-05
2.788,0.000972656234807801
2.789,0.00157613370340925
2.79,-0.000612342824908296
2.791,0.000103218077001088
2.792,0.00110880277809144
2.793,-0.000502159110808975
2.794,0.000387542718556233
2.795,0.00159703061470395
2.796,-9.24530014856373e-05
2.797,0.000347015375439241
2.798,0.00157929990209027
2.799,0.000359680170163301
2.8,0.000997352584519717
2.801,0.00227269741323255
2.802,0.000707328785338746
2.803,0.000713661182700775
2.804,0.00191111752386064
2.805,0.00045023345244033
2.806,0.000445800774286909
2.807,0.00186805722179884
2.808,0.000526222220784689
2.809,0.000174140927455824
2.81,0.00119112394379783
2.811,-0.000179206845345448
2.812,-0.000421737664311195
2.813,0.00122215269087178
2.814,0.000300788874696423
2.815,-3.48281854911647e-05
2.816,0.00151597592846997
2.817,0.00042490386299221
2.818,-0.000133613584338832
2.819,0.00187059018074365
2.82,0.0012474822803199
2.821,0.000461631767691983
2.822,0.00204916378635289
2.823,0.0010993041820484
2.824,4.05273431169917e-05
2.825,0.0016698531843673
2.826,0.000991020187157687
2.827,-6.20574941478935e-05
2.828,0.00159956357364877
2.829,0.000876403794904945
2.83,-0.000766853320541827
2.831,0.000761787402652203
2.832,0.000453399651121345
2.833,-0.000759887683443594
2.834,0.00106637571576584
2.835,0.000996086105047311
2.836,-0.000474296562416043
2.837,0.000987853988476672
2.838,0.00102331541370404
2.839,-0.000114616392252742
2.84,0.00161286160810903
2.841,0.00175913998717192
2.842,0.000108283994890712
2.843,0.00127661130818524
2.844,0.00148874661981324
2.845,-0.000168441769829997
2.846,0.00100938413950757
2.847,0.00151660916820617
2.848,-0.000158309934050749
2.849,0.00067440031905619
2.85,0.000882102952530772
2.851,-0.000931495651954606
2.852,2.21633907671048e-05
2.853,0.000959991440083741
2.854,-0.000505958549226193
2.855,0.000365379327789128
2.856,0.00132410428840046
2.857,-0.000411605828531947
2.858,0.000234298702395108
2.859,0.00176293942558914
2.86,0.000378044122513188
2.861,0.000745956409247128
2.862,0.00198077389484297
2.863,0.00021783446925383
2.864,0.000271026607094882
2.865,0.00165718838964324
2.866,0.000129814145921614
2.867,0.000139312741964659
2.868,0.00164072415650196
2.869,2.53295894481198e-06
2.87,-0.000631340016994386
2.871,0.000823211657063894
2.872,-0.000398941033807887
2.873,-0.000616142263325514
2.874,0.00118542478617201
2.875,0.00013108062539402
2.876,-0.000359046930427098
2.877,0.00116769407355832
2.878,0.000171607968511012
2.879,5.06591788962396e-06
2.88,0.00188008877678669
2.881,0.000892868028046223
2.882,0.000177307126136839
2.883,0.00163185880019512
2.884,0.000614875783853108
2.885,-0.000193771359278117
2.886,0.00143112180381877
2.887,0.000665534962749348
2.888,-0.000250129695800183
2.889,0.00116769407355832
2.89,7.28225696633444e-05
2.891,-0.00109740446283979
2.892,0.000624374379896153
2.893,0.0002748260455121
2.894,-0.00073582457346788
2.895,0.00100051878320073
2.896,0.000704795826393934
2.897,-0.00072949217610585
2.898,0.000884002671739381
2.899,0.00123671720480445
2.9,1.51977536688719e-05
2.901,0.00141339109120509
2.902,0.00153117368213884
2.903,-0.00018807220165229
2.904,0.00096189115929235
2.905,0.00129497526053513
2.906,-0.000314086909156686
2.907,0.000823844896800097
2.908,0.00133930204206933
2.909,-0.000503425590281381
2.91,5.06591788962396e-05
2.911,0.000600944509656642
2.912,-0.000944793686414869
2.913,6.90231312461265e-05
2.914,0.00105497740051419
2.915,-0.000455299370329953
2.916,0.000291290278653378
2.917,0.00110500333967423
2.918,-0.000448333733231721
2.919,0.00063640593488401
2.92,0.00189465329071936
2.921,0.000219734188462439
2.922,0.000730758655578256
2.923,0.00170404813012226
2.924,-7.02896107185325e-05
2.925,0.000326118464144542
2.926,0.00158753201866091
2.927,-1.89971920860899e-05
2.928,0.000226699825560672
2.929,0.00136463163151745
2.93,-0.000632606496466792
2.931,-0.000654136647497694
2.932,0.000913764939340922
2.933,-0.000410339349059541
2.934,-0.000320419306518716
2.935,0.00136019895336403
2.936,1.89971920860899e-06
2.937,-0.000379943841721797
2.938,0.00132283780892806
2.939,0.0005496520910242
2.94,0.000307754511794656
2.941,0.00192694851726571
2.942,0.000852973924665434
2.943,2.08969112946988e-05
2.944,0.00152484128477681
2.945,0.000633239736202995
2.946,-0.00018173980429026
2.947,0.00144821927669625
2.948,0.000726959217161038
2.949,-0.000470497123998825
2.95,0.000696563709823295
2.951,5.38253775772546e-05
2.952,-0.000940361008261448
2.953,0.000764320361597015
2.954,0.000567382803637884
2.955,-0.000499626151864163
2.956,0.00100621794082656
2.957,0.000671234120375175
2.958,-0.00051165770685202
2.959,0.00138932798122937
2.96,0.00149381253770287
2.961,0.000100051878320073
2.962,0.00149697873638388
2.963,0.00132980344602629
2.964,-0.000246330257382965
2.965,0.00112336729202411
2.966,0.00125254819820952
2.967,-0.000272293086567288
2.968,0.00105117796209697
2.969,0.00107714079128129
2.97,-0.00096822355665438
2.971,0.00019440459901432
2.972,0.000713661182700775
2.973,-0.0008244781365363
2.974,0.000518623343950253
2.975,0.00124114988295787
2.976,-0.000507858268434802
2.977,0.000413505547740556
2.978,0.00130574033605058
2.979,-8.86535630684193e-06
2.98,0.00104674528394355
2.981,0.00197634121668955
2.982,0.000220367428198642
2.983,0.000688331593252656
2.984,0.00167238614331211
2.985,-1.07650755154509e-05
2.986,0.000424270623256007
2.987,0.00166225430753286
2.988,6.71234120375175e-05
2.989,5.76248159944726e-05
2.99,0.000966957077181974
2.991,-0.000612976064644499
2.992,-0.000457199089538562
2.993,0.00111133573703626
2.994,-0.000101318357792479
2.995,-9.05532822770283e-05
2.996,0.0013962936183276
2.997,-1.07650755154509e-05
2.998,-0.000167175290357591
2.999,0.00185159298865756
3,0.000832710253106939
3.001,0.000360946649635707
3.002,0.00198077389484297
3.003,0.00067440031905619
3.004,-6.14242544116905e-05
3.005,0.00164579007439158
3.006,0.000643371571982243
3.007,-0.000141845700909471
3.008,0.00160399625180219
3.009,0.000490127555821118
3.01,-0.000894134507518629
3.011,0.000771919238431451
3.012,0.000183006283762666
3.013,-0.000771285998695248
3.014,0.00111196897677246
3.015,0.000719360340326602
3.016,-0.000500259391600366
3.017,0.00102521513291265
3.018,0.000801681506032992
3.019,-2.59628291843228e-05
3.02,0.00170658108906707
3.021,0.00147291562640817
3.022,0.000115882871725148
3.023,0.00137539670703291
3.024,0.00118605802590821
3.025,-0.00018807220165229
3.026,0.00116896055303073
3.027,0.00122215269087178
3.028,-0.000203903195057364
3.029,0.000813079821284646
3.03,0.000578147879153335
3.031,-0.000980255111642236
3.032,0.000322319025727325
3.033,0.000815612780229458
3.034,-0.00056231688574826
3.035,0.000658569325651115
3.036,0.0011632613954049
3.037,-0.00056864928311029
3.038,0.000545219412870779
3.039,0.00171481320563771
3.04,0.000222900387143454
3.041,0.0010157165368696
3.042,0.00190288540729
3.043,1.07650755154509e-05
3.044,0.000530021659201907
3.045,0.00162172696441587
3.046,-5.63583365220666e-05
3.047,0.000393875115918263
3.048,0.00162425992336068
3.049,-0.000277992244193115
3.05,-0.000425537102728413
3.051,0.000855506883610246
3.052,-0.000595245352030815
3.053,-0.000337516779396196
3.054,0.00127027891082321
3.055,-9.05532822770283e-05
3.056,-0.000154510495633531
3.057,0.00122975156770622
3.058,-7.59887683443594e-06
3.059,0.0002748260455121
3.06,0.00197887417563436
3.061,0.000647804250135664
3.062,0.00032991790256176
3.063,0.00170658108906707
3.064,0.00037424468409597
3.065,-5.06591788962396e-05
3.066,0.00154890439475253
3.067,0.000429969780881834
3.068,-0.000139312741964659
3.069,0.00121075437562013
3.07,-0.000196937557959131
3.071,-0.000968856796390583
3.072,0.00078648375236412
3.073,8.54873643874043e-05
3.074,-0.000608543386491078
3.075,0.00115882871725148
3.076,0.000455932610066156
3.077,-0.000668701161430363
3.078,0.00111323545624487
3.079,0.00106004331840381
3.08,4.68597404790216e-05
3.081,0.00160336301206598
3.082,0.0012677459518784
3.083,-0.000244430538174356
3.084,0.00116516111461351
3.085,0.00106384275682103
3.086,-0.000371711725151158
3.087,0.00105497740051419
3.088,0.00113476560727577
3.089,-0.000683265675363032
3.09,0.000231132503714093
3.091,0.000448333733231721
3.092,-0.00103914640710911
3.093,0.000324218744935934
3.094,0.000945426926151072
3.095,-0.000570549002318899
3.096,0.000497726432655554
3.097,0.000983421310323251
3.098,-0.000502792350545178
3.099,0.000911865220132313
3.1,0.00176990506268737
3.101,9.43527206942463e-05
3.102,0.000922630295647764
3.103,0.00153054044240264
3.104,-0.000214035030836612
3.105,0.00054331969366217
3.106,0.0014387206806532
3.107,-0.000189971920860899
3.108,0.000455932610066156
3.109,0.00114806364173603
3.11,-0.000882102952530772
3.111,-0.000386276239083827
3.112,0.000826377855744909
3.113,-0.000632606496466792
3.114,-3.98941033807887e-05
3.115,0.00130637357578678
3.116,-0.000311553950211874
3.117,-0.000170341489038606
3.118,0.0013741302275605
3.119,0.000293189997861987
3.12,0.000481262199514276
3.121,0.00195101162724143
3.122,0.000485694877667697
3.123,0.000101318357792479
3.124,0.00159386441602294
3.125,0.00030015563496022
3.126,-0.000107017515418306
3.127,0.00155270383316974
3.128,0.000402740472225105
3.129,-0.000520523063158862
3.13,0.000773185717903857
3.131,-0.000229866024241687
3.132,-0.000916297898285734
3.133,0.0009302291724822
3.134,0.000313453669420483
3.135,-0.000519256583686456
3.136,0.00112526701123272
3.137,0.000382476800666609
3.138,-0.000509124747907208
3.139,0.00159069821734192
3.14,0.00123038480744242
3.141,2.15301510309018e-05
3.142,0.00161982724520726
3.143,0.00104357908526254
3.144,-0.00035524749200988
3.145,0.00125191495847332
3.146,0.00102014921502303
3.147,-0.000390708917237248
3.148,0.00116072843646009
3.149,0.000780784594738293
3.15,-0.00112336729202411
3.151,0.000321052546254919
3.152,0.000532554618146719
3.153,-0.000899833665144456
3.154,0.00064907072960807
3.155,0.00103914640710911
3.156,-0.000625640859368559
3.157,0.000512290946588223
3.158,0.00115692899804287
3.159,-4.43267815342097e-05
3.16,0.0011626281556687
3.161,0.00174520871297545
3.162,7.47222888719534e-05
3.163,0.000780784594738293
3.164,0.00142858884487396
3.165,-0.000162109372467967
3.166,0.000595245352030815
3.167,0.00144821927669625
3.168,-0.000129180906185411
3.169,0.000166542050621388
3.17,0.00074215697082991
3.171,-0.00083081053389833
3.172,-0.000240631099757138
3.173,0.000996086105047311
3.174,-0.000348281854911647
3.175,0.0001057510359459
3.176,0.00127914426713005
3.177,-0.000328018183353151
3.178,6.52236928289085e-05
3.179,0.00185665890654718
3.18,0.000496459953183148
3.181,0.000492027275029727
3.182,0.00193138119541914
3.183,0.000292556758125784
3.184,3.98941033807887e-05
3.185,0.00164262387571057
3.186,0.000295089717070596
3.187,-6.20574941478935e-05
3.188,0.00160272977232978
3.189,4.43267815342097e-05
3.19,-0.000885269151211787
3.191,0.000799781786824383
3.192,-0.000177940365873042
3.193,-0.000713027942964573
3.194,0.00119049070406163
3.195,0.000362846368844316
3.196,-0.000502159110808975
3.197,0.0010993041820484
3.198,0.000519889823422659
3.199,2.59628291843228e-05
3.2,0.00180283352896993
3.201,0.00113413236753956
3.202,4.81262199514276e-05
3.203,0.00144821927669625
3.204,0.000856773363082652
3.205,-0.0002748260455121
3.206,0.00127914426713005
3.207,0.000928962693009794
3.208,-0.000313453669420483
3.209,0.000842208849149984
3.21,0.000267860408413867
3.211,-0.00107397459260028
3.212,0.000469230644526419
3.213,0.000603477468601454
3.214,-0.000637672414356416
3.215,0.000813079821284646
3.216,0.000925163254592576
3.217,-0.00067440031905619
3.218,0.000797248827879571
3.219,0.00157740018288166
3.22,9.94186385838702e-05
3.221,0.00121518705377355
3.222,0.00169518277381542
3.223,-0.000168441769829997
3.224,0.000761787402652203
3.225,0.00147481534561678
3.226,-0.000225433346088266
3.227,0.000648437489871867
3.228,0.00150837705163553
3.229,-0.000557250967858636
3.23,-0.000203903195057364
3.231,0.000820678698119082
3.232,-0.00078015135500209
3.233,-6.39572133565025e-05
3.234,0.00128800962343689
3.235,-0.000276092524984506
3.236,7.15560901909384e-05
3.237,0.00125824735583535
3.238,-0.000110183714099321
3.239,0.000564216604956869
3.24,0.00202130123795996
3.241,0.000482528678986682
3.242,0.000516090385005441
3.243,0.00170784756853948
3.244,0.000212768551364206
3.245,0.000170341489038606
3.246,0.00159639737496775
3.247,0.000275459285248303
3.248,8.80203233322163e-05
3.249,0.00118859098485302
3.25,-0.000415405266949165
3.251,-0.000707962025074949
3.252,0.000904266343297877
3.253,-8.92868028046223e-05
3.254,-0.00032991790256176
3.255,0.00132030484998324
3.256,0.000212768551364206
3.257,-0.000454032890857547
3.258,0.00139376065938279
3.259,0.000886535630684193
3.26,0.000228599544769281
3.261,0.00187438961916087
3.262,0.00102331541370404
3.263,-0.000145011899590486
3.264,0.0014798812635064
3.265,0.00087323759622393
3.266,-0.000291923518389581
3.267,0.00138172910439494
3.268,0.000941627487733854
3.269,-0.000751655566872955
3.27,0.000525588981048486
3.271,0.00032991790256176
3.272,-0.00102901457132987
3.273,0.000678832997209611
3.274,0.0008669051988619
3.275,-0.00059841155071183
3.276,0.000789649951045135
3.277,0.000890335069101411
3.278,-0.000479362480305667
3.279,0.00127977750686625
3.28,0.00170594784933087
3.281,3.60946649635707e-05
3.282,0.00119808958089607
3.283,0.0014583511124755
3.284,-0.000283058162082739
3.285,0.000830177294162127
3.286,0.00142162320777572
3.287,-0.000267860408413867
3.288,0.000700363148240513
3.289,0.00105244444156938
3.29,-0.00100685118056276
3.291,-0.000135513303547441
3.292,0.000848541246512013
3.293,-0.000692764271406077
3.294,0.000195037838750522
3.295,0.00130574033605058
3.296,-0.000417304986157774
3.297,2.97622676015408e-05
3.298,0.00144125363959802
3.299,0.000264060969996649
3.3,0.000681999195890626
3.301,0.00193391415436395
3.302,0.000354614252273677
3.303,0.00028115844287413
3.304,0.00157550046367305
3.305,0.000171607968511012
3.306,0.000126014707504396
3.307,0.00155143735369734
3.308,0.000214035030836612
3.309,-0.000369812005942549
3.31,0.000768119800014233
3.311,-0.000428703301409428
3.312,-0.000669334401166566
3.313,0.00102648161238506
3.314,8.67538438598103e-05
3.315,-0.00031282042968428
3.316,0.00122341917034419
3.317,0.000113983152516539
3.318,-0.000257728572634619
3.319,0.00181169888527677
3.32,0.000954925522194117
3.321,0.000153877255897328
3.322,0.00178256985741143
3.323,0.000745956409247128
3.324,-0.000258361812370822
3.325,0.00146025083168411
3.326,0.000770652758959045
3.327,-0.000316619868101498
3.328,0.00135829923415542
3.329,0.000447067253759315
3.33,-0.00111513517545347
3.331,0.000565483084429275
3.332,0.000330551142297963
3.333,-0.000838409410732766
3.334,0.000924530014856373
3.335,0.000835243212051751
3.336,-0.000639572133565025
3.337,0.000769386279486639
3.338,0.0010359802084281
3.339,-2.53295894481198e-05
3.34,0.00142225644751193
3.341,0.00158246610077128
3.342,0
3.343,0.0010366134481643
3.344,0.00130700681552298
3.345,-0.000240631099757138
3.346,0.000871337877015321
3.347,0.00135766599441922
3.348,-0.000250762935536386
3.349,0.000349548334384053
3.35,0.000658569325651115
3.351,-0.000921363816175358
3.352,4.55932610066156e-05
3.353,0.00100305174214554
3.354,-0.000433135979562849
3.355,0.000370445245678752
3.356,0.00125951383530776
3.357,-0.000431869500090443
3.358,0.000416671746421571
3.359,0.00192758175700192
3.36,0.000378677362249391
3.361,0.000779518115265887
3.362,0.00194151303119838
3.363,0.000140579221437065
3.364,0.000345748895966835
3.365,0.00169898221223264
3.366,0.000131713865130223
3.367,0.000233032222922702
3.368,0.00166035458832425
3.369,-0.000240631099757138
3.37,-0.000635139455411604
3.371,0.000949859604304493
3.372,-0.000352714533065068
3.373,-0.000428703301409428
3.374,0.00137666318650531
3.375,0.000155143735369734
3.376,-0.000322952265463528
3.377,0.00127281186976802
3.378,0.000396408074863075
3.379,0.000235565181867514
3.38,0.00197380825774474
3.381,0.000958724960611335
3.382,0.000164009091676576
3.383,0.00159639737496775
3.384,0.000700996387976716
3.385,-0.000134246824075035
3.386,0.00145771787273929
3.387,0.000773185717903857
3.388,-0.000210235592419394
3.389,0.000928329453273591
3.39,6.77566517737205e-05
3.391,-0.000933395371163215
3.392,0.000678199757473408
3.393,0.000435035698771458
3.394,-0.000509757987643411
3.395,0.00103028105080227
3.396,0.000676300038264799
3.397,-0.000614875783853108
3.398,0.00113096616885855
3.399,0.00139249417991039
3.4,9.30862412218403e-05
3.401,0.00151091001058035
3.402,0.00145201871511347
3.403,-0.000253295894481198
3.404,0.00108283994890712
3.405,0.00129370878106272
3.406,-0.000336883539659993
3.407,0.000971389755335395
3.408,0.00133993528180554
3.409,-0.000806114184186413
3.41,6.96563709823295e-05
3.411,0.000731391895314459
3.412,-0.000949859604304493
3.413,0.000250129695800183
3.414,0.00125318143794573
3.415,-0.000476829521360855
3.416,0.000308387751530859
3.417,0.00122911832797001
3.418,-0.000246330257382965
3.419,0.000832710253106939
3.42,0.00199470516903943
3.421,0.000267227168677664
3.422,0.000692764271406077
3.423,0.00168885037645339
3.424,5.06591788962396e-06
3.425,0.000348281854911647
3.426,0.00160969540942801
3.427,4.93926994238336e-05
3.428,0.000205802914265973
3.429,0.0011423644841102
3.43,-0.000644638051454649
3.431,-0.000566116324165478
3.432,0.000969490036126786
3.433,-0.000256462093162213
3.434,-0.000202636715584958
3.435,0.00136779783019847
3.436,3.16619868101498e-06
3.437,-0.000357780450954692
3.438,0.00151787564767858
3.439,0.000744056690038519
3.44,0.000298889155487814
3.441,0.00191111752386064
3.442,0.000801681506032992
3.443,-8.42208849149984e-05
3.444,0.00152357480530441
3.445,0.000657936085914912
3.446,-0.000201370236112552
3.447,0.00144252011907042
3.448,0.00068706511378025
3.449,-0.000716194141645587
3.45,0.000616142263325514
3.451,9.94186385838702e-05
3.452,-0.000896034226727238
3.453,0.000869438157806712
3.454,0.000625007619632356
3.455,-0.000517356864477847
3.456,0.000970756515599192
3.457,0.000625007619632356
3.458,-0.000358413690690895
3.459,0.00156283566894899
3.46,0.00144062039986181
3.461,3.79943841721797e-05
3.462,0.00143175504355497
3.463,0.00120125577957708
3.464,-0.000312187189948077
3.465,0.00111893461387069
3.466,0.0012468490405837
3.467,-0.000301422114432626
3.468,0.000987853988476672
3.469,0.000871337877015321
3.47,-0.00102521513291265
3.471,0.000246330257382965
3.472,0.000835243212051751
3.473,-0.000638305654092619
3.474,0.00062374114015995
3.475,0.00133866880233313
3.476,-0.00038690947882003
3.477,0.00049266051476593
3.478,0.0016274261220417
3.479,0.000383110040402812
3.48,0.00118795774511682
3.481,0.00214414974678334
3.482,0.000446434014023112
3.483,0.000827011095481112
3.484,0.00188642117414872
3.485,0.000328651423089354
3.486,0.00073582457346788
3.487,0.00194847866829662
3.488,0.000373611444359767
3.489,0.000186805722179884
3.49,0.0012253188895528
3.491,-0.000191238400333305
3.492,-1.20315549878569e-05
3.493,0.00156980130604722
3.494,0.000337516779396196
3.495,0.000296356196543002
3.496,0.00170404813012226
3.497,0.000308387751530859
3.498,0.000349548334384053
3.499,0.00226889797481533
3.5,0.00101191709845239
3.501,0.000538253775772546
3.502,0.00202193447769616
3.503,0.000622474660687544
3.504,-1.39312741964659e-05
3.505,0.00161412808758143
3.506,0.000517356864477847
3.507,-0.000223533626879657
3.508,0.00137286374808809
3.509,-1.26647947240599e-05
3.51,-0.00115312955962565
3.511,0.000591445913613597
3.512,-9.18197617494343e-05
3.513,-0.000912498459868516
3.514,0.000959991440083741
3.515,0.000404640191433714
3.516,-0.00079281614972615
3.517,0.000823844896800097
3.518,0.000725692737688632
3.519,-0.000136779783019847
3.52,0.00147798154429779
3.521,0.00122785184849761
3.522,-0.000215934750045221
3.523,0.00106700895550205
3.524,0.000993553146102499
3.525,-0.000420471184838789
3.526,0.000933395371163215
3.527,0.00106700895550205
3.528,-0.000473030082943637
3.529,0.000328651423089354
3.53,0.00036157988937191
3.531,-0.00108283994890712
3.532,0.000148178098271501
3.533,0.000763053882124609
3.534,-0.000583847036779161
3.535,0.000488227836612509
3.536,0.000970123275862989
3.537,-0.000612976064644499
3.538,0.00066806792169416
3.539,0.00172937771957038
3.54,0.000157676694314546
3.541,0.00099798582425592
3.542,0.00171417996590151
3.543,-0.000138046262492253
3.544,0.000584480276515364
3.545,0.00155523679211456
3.546,-0.00015007781748011
3.547,0.000490127555821118
3.548,0.00155397031264215
3.549,-0.00061740874279792
3.55,-0.000406539910642323
3.551,0.000962524399028553
3.552,-0.000627540578577168
3.553,-0.000181106564554057
3.554,0.00143555448197219
3.555,-0.000149444577743907
3.556,-0.000160209653259358
3.557,0.0013747634672967
3.558,0.000207069393738379
3.559,0.000426803582200819
3.56,0.00207639309500962
3.561,0.000703529346921528
3.562,0.000254562373953604
3.563,0.00170404813012226
3.564,0.000477462761097058
3.565,-2.46963497119168e-05
3.566,0.00161032864916422
3.567,0.000567382803637884
3.568,-0.000167175290357591
3.569,0.00101634977660581
3.57,-0.000124114988295787
3.571,-0.000849174486248216
3.572,0.000880203233322163
3.573,0.000303321833641235
3.574,-0.000447700493495518
3.575,0.00121012113588392
3.576,0.000526222220784689
3.577,-0.000554084769177621
3.578,0.00140072629648103
3.579,0.0013114394936764
3.58,0.000126647947240599
3.581,0.00169454953407921
3.582,0.00130637357578678
3.583,-0.000227966305033078
3.584,0.00127344510950422
3.585,0.00117149351197554
3.586,-0.000286224360763754
3.587,0.00117402647092035
3.588,0.00116579435434971
3.589,-0.0008244781365363
3.59,0.000290023799180972
3.591,0.000596511831503221
3.592,-0.000883369432003178
3.593,0.000547119132079388
3.594,0.00110437009993802
3.595,-0.000469863884262622
3.596,0.000600944509656642
3.597,0.00110183714099321
3.598,-0.000184906002971275
3.599,0.0012056884577305
3.6,0.00186425778338162
3.601,0.000200103756640146
3.602,0.00100305174214554
3.603,0.00157613370340925
3.604,-0.000105117796209697
3.605,0.000689598072725062
3.606,0.00158183286103508
3.607,-6.14242544116905e-05
3.608,0.000494560233974539
3.609,0.00107017515418306
3.61,-0.000788383471572729
3.611,-0.00023049926397789
3.612,0.00104611204420735
3.613,-0.000362213129108113
3.614,0.000107017515418306
3.615,0.00143365476276358
3.616,-0.000162109372467967
3.617,-6.20574941478935e-05
3.618,0.0016920165751344
3.619,0.000613609304380702
3.62,0.000552818289705215
3.621,0.0020295333545306
3.622,0.000588279714932582
3.623,0.00014374542011808
3.624,0.00167998502014655
3.625,0.000469230644526419
3.626,3.54614252273677e-05
3.627,0.00165085599228121
3.628,0.000457832329274765
3.629,-0.000588279714932582
3.63,0.000835876451787954
3.631,-6.58569325651115e-05
3.632,-0.000692764271406077
3.633,0.00116769407355832
3.634,0.000492027275029727
3.635,-0.000355880731746083
3.636,0.00124241636243028
3.637,0.000526222220784689
3.638,-0.000113349912780336
3.639,0.00190541836623481
3.64,0.00134563443943136
3.641,0.000203269955321161
3.642,0.00172051236326354
3.643,0.00111070249730005
3.644,-0.000142478940645674
3.645,0.00144252011907042
3.646,0.00115312955962565
3.647,-0.000172241208247215
3.648,0.00124874875979231
3.649,0.000662368764068333
3.65,-0.000970123275862989
3.651,0.000550285330760403
3.652,0.000697196949559498
3.653,-0.000610443105699687
3.654,0.000909965500923704
3.655,0.00114616392252742
3.656,-0.00049899291212796
3.657,0.000741523731093707
3.658,0.00150584409269072
3.659,0.000228599544769281
3.66,0.00134500119969516
3.661,0.00190985104438823
3.662,0.000128547666449208
3.663,0.000891601548573817
3.664,0.00163122556045892
3.665,-3.35617060187587e-05
3.666,0.000735191333731677
3.667,0.00166605374595008
3.668,-8.92868028046223e-05
3.669,4.55932610066156e-05
3.67,0.000900466904880659
3.671,-0.000619941701742732
3.672,-7.85217272891714e-05
3.673,0.00127534482871283
3.674,-9.18197617494343e-05
3.675,0.000226699825560672
3.676,0.00138806150175697
3.677,-8.99200425408253e-05
3.678,0.000455299370329953
3.679,0.00210235592419394
3.68,0.000666801442221754
3.681,0.000717460621117993
3.682,0.00198140713457917
3.683,0.000391342156973451
3.684,0.000322952265463528
3.685,0.00179966733028891
3.686,0.00041857146563018
3.687,0.000236198421603717
3.688,0.00169328305460681
3.689,-7.91549670253744e-05
3.69,-0.000625640859368559
3.691,0.00111576841518968
3.692,8.86535630684193e-06
3.693,-0.000337516779396196
3.694,0.00156283566894899
3.695,0.000503425590281381
3.696,-0.000321052546254919
3.697,0.00146088407142031
3.698,0.000943527206942463
3.699,0.000328018183353151
3.7,0.00208209225263545
3.701,0.00138869474149317
3.702,0.000150711057216313
3.703,0.00165655514990704
3.704,0.00116389463514111
3.705,-7.72552478167654e-05
3.706,0.0015229415655682
3.707,0.00126014707504396
3.708,-0.00020516967452977
3.709,0.000844741808094795
3.71,0.00057498168047232
3.711,-0.000763053882124609
3.712,0.000763053882124609
3.713,0.00102901457132987
3.714,-0.00030015563496022
3.715,0.00104357908526254
3.716,0.00119682310142366
3.717,-0.000340049738341008
3.718,0.00127977750686625
3.719,0.00198583981273259
3.72,0.000360313409899504
3.721,0.00148304746218741
3.722,0.00189148709203835
3.723,3.79943841721797e-05
3.724,0.00105244444156938
3.725,0.00175913998717192
3.726,4.43267815342097e-05
3.727,0.000946060165887275
3.728,0.0016711196638397
3.729,-0.000506591788962396
3.73,6.07910146754875e-05
3.731,0.00113476560727577
3.732,-0.000445800774286909
3.733,0.000333084101242775
3.734,0.00160083005312117
3.735,-2.72293086567288e-05
3.736,0.000319786066782513
3.737,0.0015432052371267
3.738,0.000359680170163301
3.739,0.00095555876193032
3.74,0.00223343654958796
3.741,0.000711128223755964
3.742,0.000697196949559498
3.743,0.00187692257810568
3.744,0.000436302178243864
3.745,0.000411605828531947
3.746,0.00183069607736286
3.747,0.000491394035293524
3.748,0.000160842892995561
3.749,0.00119239042327024
3.75,-0.000228599544769281
3.751,-0.00050532530948999
3.752,0.00117719266960137
3.753,0.000238098140812326
3.754,-0.000142478940645674
3.755,0.00148494718139602
3.756,0.000398307794071684
3.757,-0.00028749084023616
3.758,0.00175344082954609
3.759,0.0012056884577305
3.76,0.000321052546254919
3.761,0.00196747586038271
3.762,0.00112210081255171
3.763,-8.29544054425924e-05
3.764,0.00155270383316974
3.765,0.00100748442029897
3.766,-0.000165275571148982
3.767,0.0014596175919479
3.768,0.000923263535383967
3.769,-0.000825111376272503
3.77,0.000584480276515364
3.771,0.000438201897452473
3.772,-0.000828910814689721
3.773,0.000878303514113554
3.774,0.00095555876193032
3.775,-0.000502792350545178
3.776,0.000851074205456825
3.777,0.00096822355665438
3.778,-0.0001690750095662
3.779,0.00147798154429779
3.78,0.00170784756853948
3.781,0.000108917234626915
3.782,0.00120188901931328
3.783,0.00142795560513775
3.784,-0.000201370236112552
3.785,0.000908065781715095
3.786,0.00143935392038941
3.787,-0.000189338681124696
3.788,0.000630706777258183
3.789,0.000847274767039607
3.79,-0.000953025802985508
3.791,-3.16619868101498e-05
3.792,0.000916297898285734
3.793,-0.000518623343950253
3.794,0.000329284662825557
3.795,0.00130447385657817
3.796,-0.000405273431169917
3.797,0.000163375851940373
3.798,0.00167681882146553
3.799,0.000372344964887361
3.8,0.000725059497952429
3.801,0.0019662093809103
3.802,0.000257095332898416
3.803,0.00026849364815007
3.804,0.00164705655386399
3.805,0.000147544858535298
3.806,0.000126647947240599
3.807,0.00163629147834854
3.808,7.15560901909384e-05
3.809,-0.000599678030184236
3.81,0.00083081053389833
3.811,-0.000362213129108113
3.812,-0.00063007353752198
3.813,0.00117909238880998
3.814,0.000176673886400636
3.815,-0.000352714533065068
3.816,0.0011847915464358
3.817,0.000205802914265973
3.818,-3.67279046997737e-05
3.819,0.00187059018074365
3.82,0.000948593124832087
3.821,0.000187438961916087
3.822,0.00164515683465538
3.823,0.000673133839583784
3.824,-0.000165908810885185
3.825,0.00143998716012561
3.826,0.000718727100590399
3.827,-0.000213401791100409
3.828,0.001225952129289
3.829,0.000150711057216313
3.83,-0.00105307768130558
3.831,0.000656669606442506
3.832,0.000298889155487814
3.833,-0.000721260059535211
3.834,0.0010353469686919
3.835,0.000737091052940286
3.836,-0.00071239470322837
3.837,0.000900466904880659
3.838,0.00121645353324595
3.839,-9.49859604304493e-06
3.84,0.00145201871511347
3.841,0.00157993314182647
3.842,-0.000196937557959131
3.843,0.000980255111642236
3.844,0.00135196683679339
3.845,-0.000333084101242775
3.846,0.00083714293126036
3.847,0.00142542264619294
3.848,-0.000473030082943637
3.849,6.33239736202995e-05
3.85,0.000685798634307844
3.851,-0.00094289396720626
3.852,9.49859604304493e-06
3.853,0.00110943601782765
3.854,-0.000435035698771458
3.855,0.000250762935536386
3.856,0.00119049070406163
3.857,-0.000416671746421571
3.858,0.000549018851287997
3.859,0.00195671078486725
3.86,0.000298889155487814
3.861,0.000695930470087092
3.862,0.00178130337793903
3.863,2.65960689205258e-05
3.864,0.000297622676015408
3.865,0.00163375851940373
3.866,7.21893299271414e-05
3.867,0.000198204037431537
3.868,0.0014374542011808
3.869,-0.000508491508171005
3.87,-0.000679466236945814
3.871,0.000916931138021937
3.872,-0.000347015375439241
3.873,-0.000362213129108113
3.874,0.00134816739837618
3.875,8.35876451787954e-05
3.876,-0.000381210321194203
3.877,0.00128167722607486
3.878,0.000577514639417132
3.879,0.000312187189948077
3.88,0.00190605160597102
3.881,0.000903633103561674
3.882,5.82580557306756e-05
3.883,0.0015216750860958
3.884,0.000678199757473408
3.885,-0.000151344296952516
3.886,0.00145138547537726
3.887,0.000766220080805624
3.888,-0.000391342156973451
3.889,0.000745956409247128
3.89,8.23211657063894e-05
3.891,-0.000921997055911561
3.892,0.000783950793419308
3.893,0.000595245352030815
3.894,-0.000493293754502133
3.895,0.00104864500315216
3.896,0.000734558093995474
3.897,-0.0005496520910242
3.898,0.00136843106993467
3.899,0.0015653686278938
3.9,8.29544054425924e-05
3.901,0.0015020446542735
3.902,0.00145075223564106
3.903,-0.000250129695800183
3.904,0.00109043882574156
3.905,0.00136209867257264
3.906,-0.000252029415008792
3.907,0.00100431822161795
3.908,0.0012272186087614
3.909,-0.000897300706199644
3.91,0.000108917234626915
3.911,0.000776985156321075
3.912,-0.000777618396057278
3.913,0.000421104424574992
3.914,0.00127661130818524
3.915,-0.000424270623256007
3.916,0.000355880731746083
3.917,0.00129814145921614
3.918,4.49600212704127e-05
3.919,0.00100811766003517
3.92,0.00197950741537056
3.921,0.000307121272058453
3.922,0.000683898915099235
3.923,0.00165782162937944
3.924,6.33239736202995e-05
3.925,0.000440101616661082
3.926,0.0016704864241035
3.927,0.000151977536688719
3.928,0.00013741302275605
3.929,0.00100431822161795
3.93,-0.000551551810232809
3.931,-0.000429969780881834
3.932,0.00110880277809144
3.933,-5.63583365220666e-05
3.934,-5.69915762582696e-05
3.935,0.00142478940645674
3.936,6.77566517737205e-05
3.937,-0.000145645139326689
3.938,0.00184399411182312
3.939,0.000905532822770283
3.94,0.000415405266949165
3.941,0.00202383419690477
3.942,0.000778884875529684
3.943,1.26647947240599e-06
3.944,0.00168758389698098
3.945,0.000733924854259271
3.946,-7.85217272891714e-05
3.947,0.00164262387571057
3.948,0.000608543386491078
3.949,-0.00081814573917427
3.95,0.000797248827879571
3.951,0.000238098140812326
3.952,-0.00075482176555397
3.953,0.0011202010933431
3.954,0.000783317553683105
3.955,-0.00045466613059375
3.956,0.00106700895550205
3.957,0.000854873643874043
3.958,-2.46963497119168e-05
3.959,0.00172557828115316
3.96,0.00155017087422493
3.961,0.000168441769829997
3.962,0.00141339109120509
3.963,0.00125634763662674
3.964,-0.000142478940645674
3.965,0.00118099210801859
3.966,0.00127661130818524
3.967,-0.000154510495633531
3.968,0.000864372239917088
3.969,0.000634506215675401
3.97,-0.000950492844040696
3.971,0.000323585505199731
3.972,0.000812446581548443
3.973,-0.000553451529441418
3.974,0.000676933278001002
3.975,0.0011835250669634
3.976,-0.000550285330760403
3.977,0.000537620536036343
3.978,0.00168821713671718
3.979,0.000202003475848755
3.98,0.00102204893423163
3.981,0.00193518063383635
3.982,1.26647947240599e-05
3.983,0.000540153494981155
3.984,0.00167555234199313
3.985,-7.28225696633444e-05
3.986,0.000372344964887361
3.987,0.00168568417777237
3.988,-0.000244430538174356
3.989,-0.000459732048483374
3.99,0.000889068589629005
3.991,-0.000613609304380702
3.992,-0.000441368096133488
3.993,0.00128547666449208
3.994,-7.66220080805624e-05
3.995,-0.00023683166133992
3.996,0.00125571439689054
3.997,-6.33239736202995e-06
3.998,0.000134880063811238
3.999,0.00196430966170169
4,0.000681999195890626
4.001,0.000231132503714093
4.002,0.00168188473935516
4.003,0.000409706109323338
4.004,-0.000144378659854283
4.005,0.00149381253770287
4.006,0.000465431206109201
4.007,-0.000219100948726236
4.008,0.00118035886828238
4.009,-0.00015641021484214
4.01,-0.00106320951708483
4.011,0.000680099476682017
4.012,7.40890491357504e-05
4.013,-0.000694030750878483
4.014,0.00105497740051419
4.015,0.000456565849802359
4.016,-0.000727592456897241
4.017,0.000970756515599192
4.018,0.00100241850240934
4.019,-5.69915762582696e-06
4.02,0.00149191281849426
4.021,0.0012468490405837
4.022,-0.000257728572634619
4.023,0.00106574247602964
4.024,0.00101698301634201
4.025,-0.000402740472225105
4.026,0.000969490036126786
4.027,0.00109803770257599
4.028,-0.000659835805123521
4.029,0.000179840085081651
4.03,0.000389442437764842
4.031,-0.00108537290785193
4.032,0.000240631099757138
4.033,0.000882736192266975
4.034,-0.00062374114015995
4.035,0.000445800774286909
4.036,0.000964424118237162
4.037,-0.000586379995723973
4.038,0.000827644335217315
4.039,0.00178700253556485
4.04,6.01577749392845e-05
4.041,0.000880203233322163
4.042,0.00158879849813331
4.043,-0.000235565181867514
4.044,0.00047366332267984
4.045,0.00149317929796666
4.046,-0.000181106564554057
4.047,0.000388809198028639
4.048,0.00126014707504396
4.049,-0.000816879259701864
4.05,-0.000477462761097058
4.051,0.000864372239917088
4.052,-0.000574348440736117
4.053,-0.000130447385657817
4.054,0.0013329696447073
4.055,-0.000190605160597102
4.056,-0.000199470516903943
4.057,0.0013532333162658
4.058,0.000379943841721797
4.059,0.000485694877667697
4.06,0.00195861050407586
4.061,0.000621841420951341
4.062,0.000160209653259358
4.063,0.0016058959710108
4.064,0.000428703301409428
4.065,-3.29284662825557e-05
4.066,0.00157423398420065
4.067,0.000535720816827734
4.068,-0.000376144403304579
4.069,0.000821945177591488
4.07,-0.000132980344602629
4.071,-0.000829544054425924
4.072,0.000949859604304493
4.073,0.000405273431169917
4.074,-0.000407806390114729
4.075,0.00119429014247885
4.076,0.000500259391600366
4.077,-0.00042490386299221
4.078,0.00163122556045892
4.079,0.00135449979573821
4.08,0.000144378659854283
4.081,0.00170911404801188
4.082,0.00118669126564441
4.083,-0.000226066585824469
4.084,0.00134436795995896
4.085,0.00114933012120844
4.086,-0.000262794490524243
4.087,0.00126521299293358
4.088,0.000956192001666523
4.089,-0.000987853988476672
4.09,0.000404640191433714
4.091,0.000656669606442506
4.092,-0.000794082629198556
4.093,0.000738357532412692
4.094,0.00118669126564441
4.095,-0.000481262199514276
4.096,0.000630706777258183
4.097,0.00128421018501967
4.098,7.02896107185325e-05
4.099,0.00128610990422828
4.1,0.00191555020201406
4.101,0.000245063777910559
4.102,0.000916931138021937
4.103,0.00158753201866091
4.104,1.26647947240599e-06
4.105,0.000710494984019761
4.106,0.00159386441602294
4.107,4.43267815342097e-05
4.108,0.000332450861506572
4.109,0.000887168870420396
4.11,-0.000690231312461265
4.111,-0.00013741302275605
4.112,0.00108917234626915
4.113,-0.000225433346088266
4.114,0.000226699825560672
4.115,0.00140389249516204
4.116,-0.000189338681124696
4.117,0.000159576413523155
4.118,0.00194087979146218
4.119,0.000621841420951341
4.12,0.000625640859368559
4.121,0.00208209225263545
4.122,0.000434402459035255
4.123,0.000165275571148982
4.124,0.00179333493292688
4.125,0.000407806390114729
4.126,2.78625483929318e-05
4.127,0.00176230618585294
4.128,0.000217201229517627
4.129,-0.000790916430517541
4.13,0.000948593124832087
4.131,-4.81262199514276e-05
4.132,-0.000690231312461265
4.133,0.00129940793868855
4.134,0.000500259391600366
4.135,-0.000471763603471231
4.136,0.0012056884577305
4.137,0.000640205373301228
4.138,1.70974728774809e-05
4.139,0.00188768765362113
4.14,0.00130574033605058
4.141,0.000104484556473494
4.142,0.00152800748345783
4.143,0.00102774809185746
4.144,-0.000214035030836612
4.145,0.00132410428840046
4.146,0.00108283994890712
4.147,-0.000239364620284732
4.148,0.000918197617494343
4.149,0.000421737664311195
4.15,-0.0010157165368696
4.151,0.000464797966372998
4.152,0.00069339751114228
4.153,-0.000583847036779161
4.154,0.000806747423922616
4.155,0.00102141569449543
4.156,-0.000597145071239424
4.157,0.000754188525817767
4.158,0.00161792752599865
4.159,0.000179206845345448
4.16,0.00120695493720291
4.161,0.00176673886400636
4.162,-6.14242544116905e-05
4.163,0.000766220080805624
4.164,0.00152610776424922
4.165,-0.00014374542011808
4.166,0.000640838613037431
4.167,0.0015438384768629
4.168,-0.000440101616661082
4.169,-0.000199470516903943
4.17,0.000817512499438067
4.171,-0.00073582457346788
4.172,-7.66220080805624e-05
4.173,0.00128737638370069
4.174,-0.00023683166133992
4.175,9.11865220132313e-05
4.176,0.00128674314396449
4.177,-0.000128547666449208
4.178,0.000521789542631268
4.179,0.00205612942345113
4.18,0.000502159110808975
4.181,0.000514190665796832
4.182,0.00178193661767523
4.183,0.000248229976591574
4.184,0.000148811338007704
4.185,0.00166668698568628
4.186,0.000323585505199731
4.187,5.00259391600366e-05
4.188,0.0012905425823817
4.189,-0.000324851984672136
4.19,-0.000770652758959045
4.191,0.000920730576439155
4.192,-2.21633907671048e-05
4.193,-0.000400840753016496
4.194,0.00131397245262121
4.195,0.000322319025727325
4.196,-0.00047999572004187
4.197,0.00133043668576249
4.198,0.000960624679819944
4.199,0.000227333065296875
4.2,0.00182246396079222
4.201,0.00112336729202411
4.202,-0.000108917234626915
4.203,0.00141085813226027
4.204,0.000928962693009794
4.205,-0.000260261531579431
4.206,0.00131967161024704
4.207,0.00100875089977137
4.208,-0.000637672414356416
4.209,0.000497726432655554
4.21,0.000359046930427098
4.211,-0.000966957077181974
4.212,0.000640838613037431
4.213,0.00088590239094799
4.214,-0.000531921378410516
4.215,0.000790283190781338
4.216,0.000922630295647764
4.217,-0.000457832329274765
4.218,0.00124938199952851
4.219,0.00175154111033748
4.22,0.000109550474363118
4.221,0.00123101804717862
4.222,0.00152357480530441
4.223,-0.0002115020718918
4.224,0.000862472520708479
4.225,0.00148114774297881
4.226,-0.000193138119541914
4.227,0.000754188525817767
4.228,0.00117275999144795
4.229,-0.000903633103561674
4.23,-8.73870835960133e-05
4.231,0.000921363816175358
4.232,-0.000616142263325514
4.233,0.00024949645606398
4.234,0.00140325925542584
4.235,-0.000302055354168829
4.236,0.000103851316737291
4.237,0.00149571225691147
4.238,0.000333084101242775
4.239,0.000754188525817767
4.24,0.00203649899162883
4.241,0.000483795158459088
4.242,0.000370445245678752
4.243,0.00167428586252072
4.244,0.000288757319708566
4.245,0.000189338681124696
4.246,0.00163185880019512
4.247,0.000352081293328865
4.248,-0.000248229976591574
4.249,0.000846008287567201
4.25,-0.000327384943616948
4.251,-0.000608543386491078
4.252,0.00105877683893141
4.253,0.000172874447983418
4.254,-0.000238098140812326
4.255,0.00127661130818524
4.256,0.000199470516903943
4.257,-0.000217201229517627
4.258,0.0018401946734059
4.259,0.00103851316737291
4.26,0.000233665462658905
4.261,0.00186552426285402
4.262,0.000834609972315548
4.263,-0.000186805722179884
4.264,0.00154700467554392
4.265,0.000835243212051751
4.266,-0.000284957881291348
4.267,0.00145138547537726
4.268,0.000569282522846493
4.269,-0.00108727262706054
4.27,0.000628173818313371
4.271,0.000396408074863075
4.272,-0.000870071397542915
4.273,0.000966957077181974
4.274,0.000935295090371824
4.275,-0.00064907072960807
4.276,0.00079914854708818
4.277,0.00111260221650866
4.278,-4.74929802152246e-05
4.279,0.00144758603696005
4.28,0.00170594784933087
4.281,2.78625483929318e-05
4.282,0.00104421232499874
4.283,0.00141909024883091
4.284,-0.000210868832155597
4.285,0.000842208849149984
4.286,0.00144695279722384
4.287,-0.000196937557959131
4.288,0.000350814813856459
4.289,0.000733291614523068
4.29,-0.00088590239094799
4.291,-2.34298702395108e-05
4.292,0.00101761625607821
4.293,-0.000398941033807887
4.294,0.000313453669420483
4.295,0.00128041074660246
4.296,-0.00039324187618206
4.297,0.000313453669420483
4.298,0.00189845272913658
4.299,0.000427436821937022
4.3,0.000720626819799008
4.301,0.00194214627093459
4.302,0.000202003475848755
4.303,0.000290657038917175
4.304,0.00167555234199313
4.305,0.000183006283762666
4.306,0.000187438961916087
4.307,0.00164199063597437
4.308,-0.000142478940645674
4.309,-0.00064907072960807
4.31,0.000902999863825471
4.311,-0.000331184382034166
4.312,-0.000471763603471231
4.313,0.00132410428840046
4.314,0.000174774167192027
4.315,-0.000321685785991122
4.316,0.00125634763662674
4.317,0.000368545526470143
4.318,0.000200103756640146
4.319,0.00197887417563436
4.32,0.000969490036126786
4.321,0.000165908810885185
4.322,0.00163629147834854
4.323,0.000731391895314459
4.324,-0.00015641021484214
4.325,0.0014798812635064
4.326,0.000806114184186413
4.327,-0.000233665462658905
4.328,0.000997352584519717
4.329,0.000144378659854283
4.33,-0.000979621871906033
4.331,0.000668701161430363
4.332,0.000495826713446945
4.333,-0.000560417166539651
4.334,0.00100748442029897
4.335,0.000791549670253744
4.336,-0.000616142263325514
4.337,0.00104484556473494
4.338,0.00147481534561678
4.339,0.000143112180381877
4.34,0.00147608182508918
4.341,0.00159259793655053
4.342,-0.000130447385657817
4.343,0.00107650755154509
4.344,0.00143175504355497
4.345,-0.000171607968511012
4.346,0.00100875089977137
4.347,0.00151027677084414
4.348,-0.000540153494981155
4.349,0.000171607968511012
4.35,0.000885269151211787
4.351,-0.00071239470322837
4.352,0.000381843560930406
4.353,0.00143935392038941
4.354,-0.000183006283762666
4.355,0.000541419974453561
4.356,0.00148241422245121
4.357,5.69915762582696e-05
4.358,0.00110437009993802
4.359,0.00231892391397537
4.36,0.000668701161430363
4.361,0.00107587431180889
4.362,0.00207955929369064
4.363,0.000438835137188676
4.364,0.000763687121860812
4.365,0.00203966519030985
4.366,0.000521156302895065
4.367,0.000659835805123521
4.368,0.00162109372467967
4.369,-0.000171607968511012
4.37,-0.000141845700909471
4.371,0.00137729642624151
4.372,0.000145645139326689
4.373,0.000153244016161125
4.374,0.00170024869170504
4.375,0.000318519587310107
4.376,-0.000125381467768193
4.377,0.00166732022542249
4.378,0.000887802110156599
4.379,0.00039957427354409
4.38,0.00196494290143789
4.381,0.00085424040413784
4.382,-0.000104484556473494
4.383,0.00145391843432208
4.384,0.000602844228865251
4.385,-0.000307754511794656
4.386,0.00131333921288501
4.387,0.000614242544116905
4.388,-0.00081181334181224
4.389,0.000452133171648939
4.39,-1.83639523498869e-05
4.391,-0.00104167936605393
4.392,0.000685165394571641
4.393,0.000518623343950253
4.394,-0.000618041982534123
4.395,0.000835876451787954
4.396,0.000525588981048486
4.397,-0.00049899291212796
4.398,0.00140832517331546
4.399,0.00135703275468302
4.4,-3.92608636445857e-05
4.401,0.00134626767916757
4.402,0.00112716673044133
4.403,-0.000397674554335481
4.404,0.00102901457132987
4.405,0.00114996336094464
4.406,-0.00041857146563018
4.407,0.000912498459868516
4.408,0.000814979540493255
4.409,-0.00117022703250313
4.41,0.000124114988295787
4.411,0.000732025135050662
4.412,-0.000827011095481112
4.413,0.00047366332267984
4.414,0.0012468490405837
4.415,-0.000570549002318899
4.416,0.000304588313113641
4.417,0.00147798154429779
4.418,0.000148811338007704
4.419,0.000947326645359681
4.42,0.00199470516903943
4.421,0.000229232784505484
4.422,0.000531288138674313
4.423,0.00167175290357591
4.424,5.69915762582696e-05
4.425,0.000362213129108113
4.426,0.00167555234199313
4.427,0.000111450193571727
4.428,-0.000172874447983418
4.429,0.000901733384353065
4.43,-0.000507858268434802
4.431,-0.000451499931912736
4.432,0.00119049070406163
4.433,2.53295894481198e-05
4.434,-0.000114616392252742
4.435,0.00135829923415542
4.436,4.55932610066156e-05
4.437,-3.10287470739468e-05
4.438,0.00197127529879992
4.439,0.000878303514113554
4.44,0.000356513971482286
4.441,0.00191555020201406
4.442,0.000650970448816679
4.443,-4.43267815342097e-05
4.444,0.00162425992336068
4.445,0.000673767079319987
4.446,-9.62524399028553e-05
4.447,0.00154510495633531
4.448,0.00030648803232225
4.449,-0.000913131699604719
4.45,0.000801048266296789
4.451,0.00021783446925383
4.452,-0.000640838613037431
4.453,0.00119555662195125
4.454,0.000714294422436978
4.455,-0.000497093192919351
4.456,0.00106384275682103
4.457,0.000967590316918177
4.458,0.000119049070406163
4.459,0.00174014279508583
4.46,0.00150901029137174
4.461,6.58569325651115e-05
4.462,0.00133613584338832
4.463,0.00125951383530776
4.464,-0.00018807220165229
4.465,0.00117212675171174
4.466,0.00132917020629009
4.467,-0.000234298702395108
4.468,0.000599678030184236
4.469,0.000631340016994386
4.47,-0.000903633103561674
4.471,0.000317253107837701
4.472,0.00099798582425592
4.473,-0.00042490386299221
4.474,0.000621841420951341
4.475,0.00122151945113558
4.476,-0.00045023345244033
4.477,0.000700363148240513
4.478,0.00191175076359684
4.479,0.000337516779396196
4.48,0.00104421232499874
4.481,0.00189465329071936
4.482,4.55932610066156e-05
4.483,0.000602844228865251
4.484,0.00168188473935516
4.485,3.22952265463528e-05
4.486,0.000502159110808975
4.487,0.00165782162937944
4.488,-0.00039324187618206
4.489,-0.000366645807261534
4.49,0.00100938413950757
4.491,-0.000477462761097058
