2.4183e+06,2043,1984
2.4183e+06,2042,1982
2.4183e+06,2042,1979
2.4183e+06,2032,1979
2.4183e+06,2023,1981
2.4183e+06,2029,1983
2.4183e+06,2028,1989
2.4183e+06,2023,1987
2.4184e+06,2013,1985
2.4184e+06,1995,1977
2.4184e+06,2000,1974
2.4184e+06,1990,1975
2.4184e+06,1978,1977
2.4184e+06,1990,1985
2.4184e+06,1986,1981
2.4184e+06,1981,1990
2.4184e+06,1991,1995
2.4184e+06,1990,1996
2.4184e+06,1978,1997
2.4184e+06,1996,2003
2.4184e+06,1989,2003
2.4184e+06,1995,2014
2.4184e+06,1994,2015
2.4184e+06,2000,2012
2.4184e+06,1997,2017
2.4184e+06,1992,2006
2.4184e+06,2002,2022
2.4184e+06,2004,2023
2.4184e+06,2001,2021
2.4184e+06,1998,2019
2.4184e+06,1992,2013
2.4184e+06,1983,2006
2.4184e+06,1971,2005
2.4185e+06,1987,2000
2.4185e+06,2024,2021
2.4185e+06,2078,2053
2.4185e+06,2148,2114
2.4185e+06,2217,2180
2.4185e+06,2261,2236
2.4185e+06,2294,2296
2.4185e+06,2255,2263
2.4185e+06,2193,2232
2.4185e+06,2124,2173
2.4185e+06,2065,2110
2.4185e+06,2021,2050
2.4185e+06,2007,2029
2.4185e+06,2014,2028
2.4185e+06,2018,2038
2.4185e+06,2019,2043
2.4185e+06,2023,2044
2.4185e+06,2023,2039
2.4185e+06,2015,2040
2.4185e+06,2022,2042
2.4185e+06,2021,2047
2.4185e+06,2019,2033
2.4185e+06,2017,2038
2.4185e+06,2019,2034
2.4185e+06,2026,2036
2.4185e+06,2019,2028
2.4186e+06,2011,2025
2.4186e+06,2015,2028
2.4186e+06,2015,2027
2.4186e+06,2025,2027
2.4186e+06,2025,2033
2.4186e+06,2023,2027
2.4186e+06,2010,2020
2.4186e+06,2020,2021
2.4186e+06,2020,2022
2.4186e+06,2020,2018
2.4186e+06,2022,2017
2.4186e+06,2022,2020
2.4186e+06,2024,2016
2.4186e+06,2023,2017
2.4186e+06,2026,2018
2.4186e+06,2022,2014
2.4186e+06,2022,2009
2.4186e+06,2019,2005
2.4186e+06,2025,2011
2.4186e+06,2027,2017
2.4186e+06,2026,2014
2.4186e+06,2025,2007
2.4186e+06,2023,2004
2.4186e+06,2028,2018
2.4186e+06,2029,2007
2.4187e+06,2029,2009
2.4187e+06,2038,2011
2.4187e+06,2037,2015
2.4187e+06,2033,2010
2.4187e+06,2044,2015
2.4187e+06,2037,2012
2.4187e+06,2045,2013
2.4187e+06,2032,2014
2.4187e+06,2050,2021
2.4187e+06,2051,2022
2.4187e+06,2056,2027
2.4187e+06,2051,2021
2.4187e+06,2051,2019
2.4187e+06,2055,2024
2.4187e+06,2064,2032
2.4187e+06,2060,2031
2.4187e+06,2063,2035
2.4187e+06,2060,2033
2.4187e+06,2068,2036
2.4187e+06,2071,2039
2.4187e+06,2071,2046
2.4187e+06,2065,2037
2.4187e+06,2069,2043
2.4187e+06,2069,2038
2.4187e+06,2066,2044
2.4187e+06,2070,2047
2.4188e+06,2065,2048
2.4188e+06,2055,2041
2.4188e+06,2053,2041
2.4188e+06,2048,2039
2.4188e+06,2043,2037
2.4188e+06,2039,2039
2.4188e+06,2031,2030
2.4188e+06,2028,2033
2.4188e+06,2026,2031
2.4188e+06,2024,2037
2.4188e+06,2021,2034
2.4188e+06,2017,2030
2.4188e+06,2012,2025
2.4188e+06,2013,2024
2.4188e+06,2018,2032
2.4188e+06,2014,2035
2.4188e+06,2012,2033
2.4188e+06,2011,2028
2.4188e+06,2017,2032
2.4188e+06,2017,2036
2.4188e+06,2015,2037
2.4188e+06,2013,2027
2.4188e+06,2006,2029
2.4188e+06,2009,2034
2.4188e+06,2019,2034
2.4188e+06,2008,2026
2.4189e+06,2011,2031
2.4189e+06,2001,2026
2.4189e+06,2018,2032
2.4189e+06,2015,2037
2.4189e+06,2011,2038
2.4189e+06,2012,2030
2.4189e+06,2013,2034
2.4189e+06,2008,2030
2.4189e+06,2016,2033
2.4189e+06,2015,2038
2.4189e+06,2015,2033
2.4189e+06,2010,2031
2.4189e+06,2013,2036
2.4189e+06,2014,2034
2.4189e+06,2016,2038
2.4189e+06,2014,2039
2.4189e+06,2013,2033
2.4189e+06,2015,2036
2.4189e+06,2012,2038
2.4189e+06,2015,2041
2.4189e+06,2009,2036
2.4189e+06,2004,2032
2.4189e+06,2010,2039
2.4189e+06,2013,2035
2.4189e+06,2022,2035
2.419e+06,2016,2039
2.419e+06,2014,2031
2.419e+06,2010,2034
2.419e+06,2009,2031
2.419e+06,2019,2037
2.419e+06,2016,2036
2.419e+06,2020,2038
2.419e+06,2028,2045
2.419e+06,2027,2048
2.419e+06,2031,2043
2.419e+06,2033,2051
2.419e+06,2030,2044
2.419e+06,2043,2055
2.419e+06,2045,2054
2.419e+06,2046,2055
2.419e+06,2056,2066
2.419e+06,2048,2054
2.419e+06,2052,2056
2.419e+06,2052,2059
2.419e+06,2052,2063
2.419e+06,2049,2064
2.419e+06,2044,2053
2.419e+06,2025,2046
2.419e+06,2022,2037
2.419e+06,2016,2027
2.419e+06,2015,2033
2.4191e+06,2009,2025
2.4191e+06,2004,2022
2.4191e+06,2016,2025
2.4191e+06,2011,2026
2.4191e+06,2010,2027
2.4191e+06,2010,2029
2.4191e+06,2004,2020
2.4191e+06,2005,2021
2.4191e+06,2006,2029
2.4191e+06,2005,2018
2.4191e+06,2007,2028
2.4191e+06,1999,2022
2.4191e+06,2006,2018
2.4191e+06,2010,2032
2.4191e+06,2011,2023
2.4191e+06,2001,2029
2.4191e+06,2002,2021
2.4191e+06,1990,2009
2.4191e+06,1980,1997
2.4191e+06,1979,1997
2.4191e+06,1994,1995
2.4191e+06,2035,2018
2.4191e+06,2093,2058
2.4191e+06,2171,2124
2.4191e+06,2230,2185
2.4192e+06,2272,2248
2.4192e+06,2283,2287
2.4192e+06,2232,2251
2.4192e+06,2174,2218
2.4192e+06,2107,2148
2.4192e+06,2048,2082
2.4192e+06,2015,2039
2.4192e+06,2004,2022
2.4192e+06,2003,2023
2.4192e+06,2016,2033
2.4192e+06,2011,2029
2.4192e+06,2016,2038
2.4192e+06,2007,2033
2.4192e+06,2011,2029
2.4192e+06,2012,2038
2.4192e+06,2010,2032
2.4192e+06,2005,2029
2.4192e+06,2007,2030
2.4192e+06,2010,2031
2.4192e+06,2011,2035
2.4192e+06,2015,2031
2.4192e+06,2009,2032
2.4192e+06,2008,2031
2.4192e+06,2009,2026
2.4192e+06,2012,2033
2.4192e+06,2007,2032
2.4193e+06,2012,2029
2.4193e+06,2015,2027
2.4193e+06,2010,2027
2.4193e+06,2020,2037
2.4193e+06,2014,2035
2.4193e+06,2014,2035
2.4193e+06,2010,2024
2.4193e+06,2013,2030
2.4193e+06,2017,2033
2.4193e+06,2019,2036
2.4193e+06,2026,2034
2.4193e+06,2017,2029
2.4193e+06,2019,2032
2.4193e+06,2020,2037
2.4193e+06,2023,2034
2.4193e+06,2025,2035
2.4193e+06,2024,2035
2.4193e+06,2019,2025
2.4193e+06,2035,2038
2.4193e+06,2030,2044
2.4193e+06,2031,2041
2.4193e+06,2032,2038
2.4193e+06,2026,2035
2.4193e+06,2039,2042
2.4193e+06,2033,2042
2.4193e+06,2045,2049
2.4194e+06,2040,2045
2.4194e+06,2035,2042
2.4194e+06,2044,2041
2.4194e+06,2049,2051
2.4194e+06,2053,2052
2.4194e+06,2051,2047
2.4194e+06,2055,2047
2.4194e+06,2051,2048
2.4194e+06,2060,2059
2.4194e+06,2063,2052
2.4194e+06,2059,2053
2.4194e+06,2058,2050
2.4194e+06,2061,2055
2.4194e+06,2067,2059
2.4194e+06,2060,2062
2.4194e+06,2067,2058
2.4194e+06,2059,2057
2.4194e+06,2071,2063
2.4194e+06,2058,2055
2.4194e+06,2061,2063
2.4194e+06,2053,2055
2.4194e+06,2045,2056
2.4194e+06,2051,2055
2.4194e+06,2044,2049
2.4194e+06,2043,2050
2.4195e+06,2036,2043
2.4195e+06,2026,2035
2.4195e+06,2022,2035
2.4195e+06,2023,2038
2.4195e+06,2024,2040
2.4195e+06,2020,2034
2.4195e+06,2014,2035
2.4195e+06,2003,2031
2.4195e+06,2015,2029
2.4195e+06,2017,2042
2.4195e+06,2010,2033
2.4195e+06,2009,2037
2.4195e+06,2011,2029
2.4195e+06,2011,2034
2.4195e+06,2014,2038
2.4195e+06,2010,2040
2.4195e+06,2017,2036
2.4195e+06,2005,2029
2.4195e+06,2007,2029
2.4195e+06,2011,2027
2.4195e+06,2013,2039
2.4195e+06,2011,2035
2.4195e+06,2012,2027
2.4195e+06,2011,2032
2.4195e+06,2022,2040
2.4195e+06,2022,2044
2.4196e+06,2004,2030
2.4196e+06,2008,2031
2.4196e+06,2016,2037
2.4196e+06,2019,2032
2.4196e+06,2016,2035
2.4196e+06,2016,2038
2.4196e+06,2010,2033
2.4196e+06,2007,2032
2.4196e+06,2014,2041
2.4196e+06,2011,2035
2.4196e+06,2017,2035
2.4196e+06,2006,2035
2.4196e+06,2015,2040
2.4196e+06,2011,2033
2.4196e+06,2016,2038
2.4196e+06,2015,2033
2.4196e+06,2008,2029
2.4196e+06,2007,2028
2.4196e+06,2014,2035
2.4196e+06,2018,2040
2.4196e+06,2014,2034
2.4196e+06,2013,2032
2.4196e+06,2008,2029
2.4196e+06,2017,2038
2.4196e+06,2013,2033
2.4197e+06,2007,2035
2.4197e+06,2009,2031
2.4197e+06,2009,2030
2.4197e+06,2023,2035
2.4197e+06,2019,2037
2.4197e+06,2023,2041
2.4197e+06,2017,2041
2.4197e+06,2017,2039
2.4197e+06,2021,2042
2.4197e+06,2022,2047
2.4197e+06,2026,2046
2.4197e+06,2037,2055
2.4197e+06,2039,2050
2.4197e+06,2048,2056
2.4197e+06,2042,2059
2.4197e+06,2044,2060
2.4197e+06,2045,2055
2.4197e+06,2051,2060
2.4197e+06,2049,2055
2.4197e+06,2045,2058
2.4197e+06,2045,2058
2.4197e+06,2037,2053
2.4197e+06,2015,2033
2.4197e+06,2011,2033
2.4197e+06,2010,2028
2.4197e+06,2011,2030
2.4198e+06,2003,2020
2.4198e+06,1996,2020
2.4198e+06,2010,2023
2.4198e+06,2003,2027
2.4198e+06,2006,2026
2.4198e+06,1999,2024
2.4198e+06,1999,2013
2.4198e+06,2000,2016
2.4198e+06,2006,2027
2.4198e+06,2003,2021
2.4198e+06,2004,2022
2.4198e+06,2003,2020
2.4198e+06,1998,2020
2.4198e+06,2000,2021
2.4198e+06,2003,2023
2.4198e+06,1991,2020
2.4198e+06,1991,2011
2.4198e+06,1972,1995
2.4198e+06,1964,1984
2.4198e+06,1983,1991
2.4198e+06,2016,2002
2.4198e+06,2062,2033
2.4198e+06,2134,2090
2.4198e+06,2205,2157
2.4198e+06,2253,2217
2.4198e+06,2284,2281
2.4199e+06,2247,2258
2.4199e+06,2188,2219
2.4199e+06,2122,2166
2.4199e+06,2057,2095
2.4199e+06,2012,2042
2.4199e+06,2003,2018
2.4199e+06,1999,2016
2.4199e+06,2005,2022
2.4199e+06,2008,2021
2.4199e+06,2007,2027
2.4199e+06,2011,2030
2.4199e+06,2001,2018
2.4199e+06,2003,2016
2.4199e+06,2002,2021
2.4199e+06,2005,2024
2.4199e+06,1999,2017
2.4199e+06,2002,2016
2.4199e+06,2005,2009
2.4199e+06,2000,2016
2.4199e+06,2007,2022
2.4199e+06,2004,2025
2.4199e+06,2004,2013
2.4199e+06,2006,2014
2.4199e+06,2003,2019
2.4199e+06,2011,2020
2.42e+06,2007,2021
2.42e+06,2005,2017
2.42e+06,2001,2014
2.42e+06,2009,2023
2.42e+06,2013,2025
2.42e+06,2010,2026
2.42e+06,2003,2016
2.42e+06,2008,2019
2.42e+06,2020,2026
2.42e+06,2019,2029
2.42e+06,2012,2021
2.42e+06,2013,2023
2.42e+06,2015,2022
2.42e+06,2016,2025
2.42e+06,2019,2032
2.42e+06,2019,2029
2.42e+06,2025,2023
2.42e+06,2019,2026
2.42e+06,2023,2026
2.42e+06,2028,2031
2.42e+06,2031,2033
2.42e+06,2030,2031
2.42e+06,2021,2030
2.42e+06,2031,2029
2.42e+06,2041,2039
2.42e+06,2036,2036
2.4201e+06,2035,2028
2.4201e+06,2036,2031
2.4201e+06,2043,2032
2.4201e+06,2047,2038
2.4201e+06,2051,2041
2.4201e+06,2050,2038
2.4201e+06,2049,2038
2.4201e+06,2057,2047
2.4201e+06,2058,2046
2.4201e+06,2057,2041
2.4201e+06,2062,2045
2.4201e+06,2053,2043
2.4201e+06,2059,2052
2.4201e+06,2065,2056
2.4201e+06,2069,2051
2.4201e+06,2063,2050
2.4201e+06,2059,2050
2.4201e+06,2059,2047
2.4201e+06,2058,2044
2.4201e+06,2056,2050
2.4201e+06,2051,2047
2.4201e+06,2043,2041
2.4201e+06,2041,2036
2.4201e+06,2038,2041
2.4201e+06,2035,2042
2.4202e+06,2033,2035
2.4202e+06,2020,2026
2.4202e+06,2016,2023
2.4202e+06,2017,2022
2.4202e+06,2022,2036
2.4202e+06,2022,2034
2.4202e+06,2013,2024
2.4202e+06,2003,2023
2.4202e+06,2011,2024
2.4202e+06,2012,2030
2.4202e+06,2006,2025
2.4202e+06,2002,2021
2.4202e+06,2009,2021
2.4202e+06,2013,2025
2.4202e+06,2020,2033
2.4202e+06,2009,2032
2.4202e+06,2009,2023
2.4202e+06,2010,2026
2.4202e+06,2007,2021
2.4202e+06,2011,2031
2.4202e+06,2015,2029
2.4202e+06,2010,2022
2.4202e+06,2012,2025
2.4202e+06,2005,2022
2.4202e+06,2015,2030
2.4202e+06,2019,2032
2.4203e+06,2017,2031
2.4203e+06,2010,2023
2.4203e+06,2011,2027
2.4203e+06,2016,2027
2.4203e+06,2017,2029
2.4203e+06,2012,2026
2.4203e+06,2008,2024
2.4203e+06,2013,2026
2.4203e+06,2016,2029
2.4203e+06,2006,2031
2.4203e+06,2010,2031
2.4203e+06,2018,2028
2.4203e+06,2011,2023
2.4203e+06,2007,2025
2.4203e+06,2015,2029
2.4203e+06,2016,2027
2.4203e+06,2011,2023
2.4203e+06,2008,2031
2.4203e+06,2013,2023
2.4203e+06,2014,2023
2.4203e+06,2011,2025
2.4203e+06,2006,2020
2.4203e+06,2001,2014
2.4203e+06,2004,2025
2.4203e+06,2006,2025
2.4203e+06,2012,2023
2.4204e+06,2007,2021
2.4204e+06,2006,2020
2.4204e+06,2003,2023
2.4204e+06,2008,2023
2.4204e+06,2003,2019
2.4204e+06,2006,2022
2.4204e+06,2010,2023
2.4204e+06,2012,2025
2.4204e+06,2017,2030
2.4204e+06,2024,2036
2.4204e+06,2015,2033
2.4204e+06,2019,2032
2.4204e+06,2021,2033
2.4204e+06,2027,2040
2.4204e+06,2037,2048
2.4204e+06,2040,2047
2.4204e+06,2044,2044
2.4204e+06,2047,2052
2.4204e+06,2045,2050
2.4204e+06,2048,2050
2.4204e+06,2045,2053
2.4204e+06,2043,2051
2.4204e+06,2039,2055
2.4204e+06,2041,2047
2.4204e+06,2038,2045
2.4205e+06,2029,2040
2.4205e+06,2012,2034
2.4205e+06,2009,2021
2.4205e+06,2007,2023
2.4205e+06,2007,2028
2.4205e+06,2007,2016
2.4205e+06,2003,2018
2.4205e+06,2004,2021
2.4205e+06,2005,2015
2.4205e+06,2012,2021
2.4205e+06,2001,2014
2.4205e+06,1998,2012
2.4205e+06,2004,2016
2.4205e+06,2002,2015
2.4205e+06,2010,2021
2.4205e+06,1999,2019
2.4205e+06,2001,2013
2.4205e+06,2005,2012
2.4205e+06,1997,2015
2.4205e+06,2001,2015
2.4205e+06,1999,2013
2.4205e+06,1984,2002
2.4205e+06,1968,1982
2.4205e+06,1974,1983
2.4205e+06,1999,1995
2.4205e+06,2058,2024
2.4206e+06,2118,2069
2.4206e+06,2184,2123
2.4206e+06,2235,2189
2.4206e+06,2283,2265
2.4206e+06,2266,2268
2.4206e+06,2209,2235
2.4206e+06,2143,2181
2.4206e+06,2081,2112
2.4206e+06,2027,2051
2.4206e+06,2004,2021
2.4206e+06,2005,2019
2.4206e+06,2001,2008
2.4206e+06,2004,2010
2.4206e+06,2016,2030
2.4206e+06,2017,2027
2.4206e+06,2013,2025
2.4206e+06,2005,2015
2.4206e+06,2007,2013
2.4206e+06,2010,2017
2.4206e+06,2014,2018
2.4206e+06,2006,2018
2.4206e+06,2006,2015
2.4206e+06,2010,2010
2.4206e+06,2008,2016
2.4206e+06,2013,2014
2.4207e+06,2009,2016
2.4207e+06,2009,2011
2.4207e+06,2010,2015
2.4207e+06,2014,2011
2.4207e+06,2013,2016
2.4207e+06,2011,2018
2.4207e+06,2015,2014
2.4207e+06,2010,2010
2.4207e+06,2011,2012
2.4207e+06,2019,2025
2.4207e+06,2017,2019
2.4207e+06,2013,2015
2.4207e+06,2015,2013
2.4207e+06,2023,2017
2.4207e+06,2023,2023
2.4207e+06,2017,2018
2.4207e+06,2021,2021
2.4207e+06,2018,2017
2.4207e+06,2023,2018
2.4207e+06,2026,2023
2.4207e+06,2027,2025
2.4207e+06,2028,2022
2.4207e+06,2024,2021
2.4207e+06,2028,2022
2.4207e+06,2035,2028
2.4207e+06,2027,2032
2.4208e+06,2028,2027
2.4208e+06,2031,2023
2.4208e+06,2039,2028
2.4208e+06,2043,2038
2.4208e+06,2046,2035
2.4208e+06,2040,2034
2.4208e+06,2044,2030
2.4208e+06,2053,2039
2.4208e+06,2052,2039
2.4208e+06,2056,2039
2.4208e+06,2056,2045
2.4208e+06,2060,2039
2.4208e+06,2061,2043
2.4208e+06,2059,2042
2.4208e+06,2067,2054
2.4208e+06,2070,2050
2.4208e+06,2071,2054
2.4208e+06,2063,2043
2.4208e+06,2068,2053
2.4208e+06,2072,2051
2.4208e+06,2071,2055
2.4208e+06,2067,2047
2.4208e+06,2061,2046
2.4208e+06,2063,2048
2.4208e+06,2062,2054
2.4208e+06,2056,2050
2.4209e+06,2051,2040
2.4209e+06,2044,2038
2.4209e+06,2039,2038
2.4209e+06,2035,2037
2.4209e+06,2032,2038
2.4209e+06,2032,2036
2.4209e+06,2023,2032
2.4209e+06,2019,2029
2.4209e+06,2021,2028
2.4209e+06,2024,2036
2.4209e+06,2018,2027
2.4209e+06,2010,2022
2.4209e+06,2013,2025
2.4209e+06,2011,2028
2.4209e+06,2018,2033
2.4209e+06,2002,2021
2.4209e+06,2013,2022
2.4209e+06,2010,2028
2.4209e+06,2013,2030
2.4209e+06,2012,2025
2.4209e+06,2015,2027
2.4209e+06,2015,2025
2.4209e+06,2017,2026
2.4209e+06,2019,2027
2.4209e+06,2019,2032
2.421e+06,2019,2028
2.421e+06,2013,2027
2.421e+06,2010,2022
2.421e+06,2014,2021
2.421e+06,2017,2027
2.421e+06,2022,2033
2.421e+06,2011,2023
2.421e+06,2018,2026
2.421e+06,2023,2034
2.421e+06,2025,2033
2.421e+06,2023,2035
2.421e+06,2017,2030
2.421e+06,2020,2030
2.421e+06,2022,2028
2.421e+06,2021,2029
2.421e+06,2022,2025
2.421e+06,2019,2028
2.421e+06,2017,2025
2.421e+06,2019,2019
2.421e+06,2016,2030
2.421e+06,2023,2034
2.421e+06,2023,2033
2.421e+06,2015,2026
2.421e+06,2019,2026
2.421e+06,2020,2039
2.421e+06,2024,2030
2.4211e+06,2017,2030
2.4211e+06,2016,2029
2.4211e+06,2016,2033
2.4211e+06,2023,2035
2.4211e+06,2017,2035
2.4211e+06,2022,2035
2.4211e+06,2011,2026
2.4211e+06,2014,2028
2.4211e+06,2018,2035
2.4211e+06,2023,2036
2.4211e+06,2021,2035
2.4211e+06,2020,2034
2.4211e+06,2018,2035
2.4211e+06,2021,2038
2.4211e+06,2022,2039
2.4211e+06,2024,2043
2.4211e+06,2028,2034
2.4211e+06,2016,2036
2.4211e+06,2037,2045
2.4211e+06,2034,2051
2.4211e+06,2035,2051
2.4211e+06,2026,2046
2.4211e+06,2032,2047
2.4211e+06,2035,2055
2.4211e+06,2053,2058
2.4212e+06,2060,2064
2.4212e+06,2059,2065
2.4212e+06,2058,2064
2.4212e+06,2057,2064
2.4212e+06,2061,2075
2.4212e+06,2064,2071
2.4212e+06,2058,2068
2.4212e+06,2051,2063
2.4212e+06,2047,2057
2.4212e+06,2040,2058
2.4212e+06,2035,2055
2.4212e+06,2024,2042
2.4212e+06,2024,2036
2.4212e+06,2020,2041
2.4212e+06,2032,2047
2.4212e+06,2026,2041
2.4212e+06,2019,2036
2.4212e+06,2018,2038
2.4212e+06,2021,2039
2.4212e+06,2020,2038
2.4212e+06,2023,2039
2.4212e+06,2024,2045
2.4212e+06,2022,2039
2.4212e+06,2019,2035
2.4212e+06,2020,2043
2.4212e+06,2025,2042
2.4213e+06,2025,2043
2.4213e+06,2010,2035
2.4213e+06,2018,2030
2.4213e+06,2015,2031
2.4213e+06,2007,2021
2.4213e+06,1997,2008
2.4213e+06,1999,2008
2.4213e+06,2033,2031
2.4213e+06,2091,2070
2.4213e+06,2160,2130
2.4213e+06,2220,2183
2.4213e+06,2270,2247
2.4213e+06,2295,2293
2.4213e+06,2257,2269
2.4213e+06,2205,2240
2.4213e+06,2141,2184
2.4213e+06,2078,2114
2.4213e+06,2034,2062
2.4213e+06,2025,2041
2.4213e+06,2028,2034
2.4213e+06,2028,2031
2.4213e+06,2027,2036
2.4213e+06,2023,2040
2.4213e+06,2039,2039
2.4213e+06,2038,2044
2.4213e+06,2032,2045
2.4214e+06,2033,2040
2.4214e+06,2029,2037
2.4214e+06,2039,2050
2.4214e+06,2035,2040
2.4214e+06,2039,2048
2.4214e+06,2034,2046
2.4214e+06,2035,2040
2.4214e+06,2038,2047
2.4214e+06,2039,2042
2.4214e+06,2037,2041
2.4214e+06,2042,2043
2.4214e+06,2033,2038
2.4214e+06,2038,2040
2.4214e+06,2040,2043
2.4214e+06,2043,2045
2.4214e+06,2038,2041
2.4214e+06,2039,2040
2.4214e+06,2040,2042
2.4214e+06,2050,2051
2.4214e+06,2043,2047
2.4214e+06,2044,2045
2.4214e+06,2040,2044
2.4214e+06,2047,2044
2.4214e+06,2049,2047
2.4214e+06,2050,2048
2.4215e+06,2054,2054
2.4215e+06,2052,2046
2.4215e+06,2051,2046
2.4215e+06,2054,2047
2.4215e+06,2059,2052
2.4215e+06,2058,2053
2.4215e+06,2058,2054
2.4215e+06,2058,2048
2.4215e+06,2064,2053
2.4215e+06,2062,2058
2.4215e+06,2064,2054
2.4215e+06,2064,2050
2.4215e+06,2065,2051
2.4215e+06,2071,2055
2.4215e+06,2081,2055
2.4215e+06,2079,2063
2.4215e+06,2081,2058
2.4215e+06,2078,2062
2.4215e+06,2080,2059
2.4215e+06,2085,2064
2.4215e+06,2091,2064
2.4215e+06,2091,2072
2.4215e+06,2096,2067
2.4215e+06,2098,2071
2.4215e+06,2099,2068
2.4215e+06,2107,2079
2.4216e+06,2097,2070
2.4216e+06,2095,2067
2.4216e+06,2102,2075
2.4216e+06,2103,2077
2.4216e+06,2099,2071
2.4216e+06,2099,2075
2.4216e+06,2086,2065
2.4216e+06,2091,2069
2.4216e+06,2080,2066
2.4216e+06,2077,2066
2.4216e+06,2070,2062
2.4216e+06,2066,2063
2.4216e+06,2064,2061
2.4216e+06,2057,2056
2.4216e+06,2052,2056
2.4216e+06,2056,2059
2.4216e+06,2044,2055
2.4216e+06,2041,2049
2.4216e+06,2047,2053
2.4216e+06,2041,2053
2.4216e+06,2038,2048
2.4216e+06,2039,2039
2.4216e+06,2038,2044
2.4216e+06,2049,2057
2.4216e+06,2042,2050
2.4217e+06,2040,2052
2.4217e+06,2040,2052
2.4217e+06,2036,2047
2.4217e+06,2035,2048
2.4217e+06,2042,2049
2.4217e+06,2047,2055
2.4217e+06,2041,2052
2.4217e+06,2038,2045
2.4217e+06,2040,2047
2.4217e+06,2042,2057
2.4217e+06,2041,2048
2.4217e+06,2042,2049
2.4217e+06,2047,2053
2.4217e+06,2047,2045
2.4217e+06,2041,2050
2.4217e+06,2049,2056
2.4217e+06,2045,2045
2.4217e+06,2040,2048
2.4217e+06,2041,2054
2.4217e+06,2052,2060
2.4217e+06,2050,2055
2.4217e+06,2046,2054
2.4217e+06,2045,2048
2.4217e+06,2048,2054
2.4217e+06,2047,2056
2.4217e+06,2053,2056
2.4218e+06,2046,2051
2.4218e+06,2047,2048
2.4218e+06,2049,2050
2.4218e+06,2052,2056
2.4218e+06,2053,2061
2.4218e+06,2046,2050
2.4218e+06,2043,2051
2.4218e+06,2048,2054
2.4218e+06,2053,2066
2.4218e+06,2045,2055
2.4218e+06,2045,2055
2.4218e+06,2047,2048
2.4218e+06,2049,2054
2.4218e+06,2057,2062
2.4218e+06,2063,2068
2.4218e+06,2059,2068
2.4218e+06,2062,2072
2.4218e+06,2063,2058
2.4218e+06,2065,2070
2.4218e+06,2083,2076
2.4218e+06,2085,2082
2.4218e+06,2069,2075
2.4218e+06,2084,2078
2.4218e+06,2085,2088
2.4218e+06,2084,2086
2.4218e+06,2087,2084
2.4219e+06,2088,2087
2.4219e+06,2083,2081
2.4219e+06,2079,2083
2.4219e+06,2072,2082
2.4219e+06,2067,2071
2.4219e+06,2049,2065
2.4219e+06,2053,2057
2.4219e+06,2053,2064
2.4219e+06,2044,2062
2.4219e+06,2052,2059
2.4219e+06,2054,2065
2.4219e+06,2045,2050
2.4219e+06,2049,2056
2.4219e+06,2034,2060
2.4219e+06,2060,2067
2.4219e+06,2048,2058
2.4219e+06,2046,2055
2.4219e+06,2047,2049
2.4219e+06,2054,2059
2.4219e+06,2045,2063
2.4219e+06,2047,2058
2.4219e+06,2039,2059
2.4219e+06,2048,2057
2.4219e+06,2051,2062
2.4219e+06,2047,2052
2.422e+06,2034,2041
2.422e+06,2019,2027
2.422e+06,2022,2024
2.422e+06,2064,2052
2.422e+06,2104,2089
2.422e+06,2183,2148
2.422e+06,2245,2200
2.422e+06,2293,2263
2.422e+06,2319,2310
2.422e+06,2282,2288
2.422e+06,2227,2243
2.422e+06,2167,2209
2.422e+06,2113,2143
2.422e+06,2073,2093
2.422e+06,2048,2066
2.422e+06,2051,2056
2.422e+06,2055,2050
2.422e+06,2050,2057
2.422e+06,2055,2059
2.422e+06,2064,2063
2.422e+06,2064,2064
2.422e+06,2060,2063
2.422e+06,2055,2063
2.422e+06,2058,2058
2.422e+06,2058,2060
2.422e+06,2065,2062
2.4221e+06,2054,2060
2.4221e+06,2051,2059
2.4221e+06,2058,2060
2.4221e+06,2063,2062
2.4221e+06,2064,2072
2.4221e+06,2063,2063
2.4221e+06,2063,2062
2.4221e+06,2059,2063
2.4221e+06,2067,2066
2.4221e+06,2063,2068
2.4221e+06,2070,2066
2.4221e+06,2067,2065
2.4221e+06,2064,2067
2.4221e+06,2072,2071
2.4221e+06,2077,2069
2.4221e+06,2074,2071
2.4221e+06,2069,2065
2.4221e+06,2067,2069
2.4221e+06,2080,2071
2.4221e+06,2079,2072
2.4221e+06,2076,2072
2.4221e+06,2078,2072
2.4221e+06,2078,2067
2.4221e+06,2079,2075
2.4221e+06,2079,2076
2.4222e+06,2081,2074
2.4222e+06,2082,2075
2.4222e+06,2085,2075
2.4222e+06,2092,2078
2.4222e+06,2095,2079
2.4222e+06,2097,2079
2.4222e+06,2095,2084
2.4222e+06,2092,2076
2.4222e+06,2091,2085
2.4222e+06,2102,2084
2.4222e+06,2103,2085
2.4222e+06,2106,2086
2.4222e+06,2102,2080
2.4222e+06,2109,2085
2.4222e+06,2114,2089
2.4222e+06,2112,2090
2.4222e+06,2112,2094
2.4222e+06,2118,2090
2.4222e+06,2119,2089
2.4222e+06,2130,2102
2.4222e+06,2126,2097
2.4222e+06,2123,2098
2.4222e+06,2120,2096
2.4222e+06,2123,2096
2.4222e+06,2121,2103
2.4222e+06,2132,2103
2.4223e+06,2125,2100
2.4223e+06,2123,2098
2.4223e+06,2115,2093
2.4223e+06,2111,2092
2.4223e+06,2110,2095
2.4223e+06,2105,2090
2.4223e+06,2100,2094
2.4223e+06,2093,2087
2.4223e+06,2089,2087
2.4223e+06,2089,2087
2.4223e+06,2083,2087
2.4223e+06,2081,2083
2.4223e+06,2070,2079
2.4223e+06,2072,2083
2.4223e+06,2075,2082
2.4223e+06,2077,2083
2.4223e+06,2068,2082
2.4223e+06,2068,2081
2.4223e+06,2070,2079
2.4223e+06,2073,2088
2.4223e+06,2071,2083
2.4223e+06,2064,2077
2.4223e+06,2070,2080
2.4223e+06,2067,2083
2.4223e+06,2076,2086
2.4223e+06,2075,2090
2.4224e+06,2070,2083
2.4224e+06,2064,2078
2.4224e+06,2071,2083
2.4224e+06,2072,2089
2.4224e+06,2070,2085
2.4224e+06,2073,2084
2.4224e+06,2070,2081
2.4224e+06,2074,2083
2.4224e+06,2074,2084
2.4224e+06,2075,2084
2.4224e+06,2071,2084
2.4224e+06,2072,2079
2.4224e+06,2075,2081
2.4224e+06,2077,2085
2.4224e+06,2078,2088
2.4224e+06,2077,2085
2.4224e+06,2078,2083
2.4224e+06,2079,2086
2.4224e+06,2076,2089
2.4224e+06,2078,2087
2.4224e+06,2074,2084
2.4224e+06,2074,2079
2.4224e+06,2073,2081
2.4224e+06,2077,2083
2.4224e+06,2077,2088
2.4225e+06,2080,2087
2.4225e+06,2078,2088
2.4225e+06,2073,2081
2.4225e+06,2076,2083
2.4225e+06,2075,2083
2.4225e+06,2078,2087
2.4225e+06,2067,2074
2.4225e+06,2071,2085
2.4225e+06,2076,2087
2.4225e+06,2081,2096
2.4225e+06,2073,2086
2.4225e+06,2073,2081
2.4225e+06,2071,2081
2.4225e+06,2082,2089
2.4225e+06,2087,2095
2.4225e+06,2081,2093
2.4225e+06,2082,2094
2.4225e+06,2083,2093
2.4225e+06,2085,2098
2.4225e+06,2088,2102
2.4225e+06,2103,2105
2.4225e+06,2108,2113
2.4225e+06,2104,2109
2.4225e+06,2112,2115
2.4225e+06,2113,2117
2.4225e+06,2111,2118
2.4226e+06,2112,2117
2.4226e+06,2103,2111
2.4226e+06,2107,2112
2.4226e+06,2107,2120
2.4226e+06,2095,2109
2.4226e+06,2091,2098
2.4226e+06,2078,2089
2.4226e+06,2069,2085
2.4226e+06,2068,2084
2.4226e+06,2071,2085
2.4226e+06,2071,2082
2.4226e+06,2069,2082
2.4226e+06,2063,2083
2.4226e+06,2064,2083
2.4226e+06,2067,2086
2.4226e+06,2073,2089
2.4226e+06,2063,2076
2.4226e+06,2065,2074
2.4226e+06,2063,2080
2.4226e+06,2066,2081
2.4226e+06,2061,2074
2.4226e+06,2063,2076
2.4226e+06,2064,2077
2.4226e+06,2064,2080
2.4226e+06,2066,2080
2.4227e+06,2062,2075
2.4227e+06,2045,2058
2.4227e+06,2040,2056
2.4227e+06,2048,2048
2.4227e+06,2079,2072
2.4227e+06,2126,2105
2.4227e+06,2189,2154
2.4227e+06,2250,2209
2.4227e+06,2305,2273
2.4227e+06,2346,2336
2.4227e+06,2308,2318
2.4227e+06,2246,2268
2.4227e+06,2178,2210
2.4227e+06,2121,2144
2.4227e+06,2079,2103
2.4227e+06,2059,2076
2.4227e+06,2063,2067
2.4227e+06,2064,2076
2.4227e+06,2068,2075
2.4227e+06,2077,2084
2.4227e+06,2075,2085
2.4227e+06,2074,2085
2.4227e+06,2068,2082
2.4227e+06,2069,2073
2.4227e+06,2070,2077
2.4227e+06,2071,2090
2.4228e+06,2069,2073
2.4228e+06,2064,2076
2.4228e+06,2068,2073
2.4228e+06,2070,2076
2.4228e+06,2071,2079
2.4228e+06,2060,2077
2.4228e+06,2069,2074
2.4228e+06,2069,2074
2.4228e+06,2074,2081
2.4228e+06,2077,2084
2.4228e+06,2074,2078
2.4228e+06,2072,2068
2.4228e+06,2069,2075
2.4228e+06,2075,2080
2.4228e+06,2080,2083
2.4228e+06,2073,2084
2.4228e+06,2072,2077
2.4228e+06,2077,2079
2.4228e+06,2082,2084
2.4228e+06,2082,2083
2.4228e+06,2083,2087
2.4228e+06,2081,2078
2.4228e+06,2079,2079
2.4228e+06,2081,2087
2.4228e+06,2090,2087
2.4228e+06,2088,2087
2.4229e+06,2087,2083
2.4229e+06,2088,2085
2.4229e+06,2088,2087
2.4229e+06,2092,2091
2.4229e+06,2091,2089
2.4229e+06,2094,2086
2.4229e+06,2095,2089
2.4229e+06,2101,2090
2.4229e+06,2108,2098
2.4229e+06,2103,2098
2.4229e+06,2103,2092
2.4229e+06,2102,2090
2.4229e+06,2108,2094
2.4229e+06,2115,2104
2.4229e+06,2121,2103
2.4229e+06,2110,2100
2.4229e+06,2112,2101
2.4229e+06,2120,2100
2.4229e+06,2128,2109
2.4229e+06,2125,2106
2.4229e+06,2127,2104
2.4229e+06,2117,2105
2.4229e+06,2128,2102
2.4229e+06,2134,2114
2.4229e+06,2133,2117
2.423e+06,2131,2108
2.423e+06,2126,2110
2.423e+06,2124,2106
2.423e+06,2119,2109
2.423e+06,2116,2107
2.423e+06,2111,2107
2.423e+06,2110,2103
2.423e+06,2102,2094
2.423e+06,2095,2092
2.423e+06,2094,2097
2.423e+06,2083,2092
2.423e+06,2077,2090
2.423e+06,2075,2087
2.423e+06,2076,2089
2.423e+06,2077,2086
2.423e+06,2075,2092
2.423e+06,2070,2081
2.423e+06,2065,2081
2.423e+06,2069,2079
2.423e+06,2075,2091
2.423e+06,2065,2083
2.423e+06,2065,2087
2.423e+06,2064,2077
2.423e+06,2065,2085
2.423e+06,2070,2086
2.423e+06,2073,2087
2.4231e+06,2064,2079
2.4231e+06,2062,2080
2.4231e+06,2062,2079
2.4231e+06,2072,2079
2.4231e+06,2070,2090
2.4231e+06,2071,2080
2.4231e+06,2067,2079
2.4231e+06,2068,2079
2.4231e+06,2071,2086
2.4231e+06,2070,2081
2.4231e+06,2067,2082
2.4231e+06,2064,2083
2.4231e+06,2081,2087
2.4231e+06,2071,2085
2.4231e+06,2070,2087
2.4231e+06,2076,2089
2.4231e+06,2065,2079
2.4231e+06,2067,2077
2.4231e+06,2064,2084
2.4231e+06,2071,2085
2.4231e+06,2076,2084
2.4231e+06,2067,2081
2.4231e+06,2070,2079
2.4231e+06,2076,2084
2.4231e+06,2077,2091
2.4232e+06,2072,2085
2.4232e+06,2063,2078
2.4232e+06,2075,2082
2.4232e+06,2075,2088
2.4232e+06,2072,2083
2.4232e+06,2076,2089
2.4232e+06,2067,2079
2.4232e+06,2065,2084
2.4232e+06,2069,2080
2.4232e+06,2071,2085
2.4232e+06,2070,2083
2.4232e+06,2069,2083
2.4232e+06,2064,2082
2.4232e+06,2073,2086
2.4232e+06,2073,2086
2.4232e+06,2070,2081
2.4232e+06,2065,2076
2.4232e+06,2064,2078
2.4232e+06,2068,2080
2.4232e+06,2071,2089
2.4232e+06,2067,2083
2.4232e+06,2069,2085
2.4232e+06,2073,2084
2.4232e+06,2077,2097
2.4232e+06,2077,2094
2.4232e+06,2082,2095
2.4233e+06,2088,2100
2.4233e+06,2081,2095
2.4233e+06,2080,2095
2.4233e+06,2097,2105
2.4233e+06,2108,2116
2.4233e+06,2101,2110
2.4233e+06,2099,2104
2.4233e+06,2097,2107
2.4233e+06,2105,2113
2.4233e+06,2105,2117
2.4233e+06,2105,2111
2.4233e+06,2099,2110
2.4233e+06,2092,2106
2.4233e+06,2086,2103
2.4233e+06,2078,2096
2.4233e+06,2065,2087
2.4233e+06,2066,2082
2.4233e+06,2060,2082
2.4233e+06,2062,2080
2.4233e+06,2064,2081
2.4233e+06,2062,2076
2.4233e+06,2057,2076
2.4233e+06,2059,2079
2.4233e+06,2057,2072
2.4233e+06,2060,2079
2.4233e+06,2062,2082
2.4234e+06,2056,2076
2.4234e+06,2055,2071
2.4234e+06,2056,2075
2.4234e+06,2060,2079
2.4234e+06,2054,2074
2.4234e+06,2047,2073
2.4234e+06,2052,2070
2.4234e+06,2058,2076
2.4234e+06,2048,2063
2.4234e+06,2035,2052
2.4234e+06,2027,2041
2.4234e+06,2040,2040
2.4234e+06,2077,2063
2.4234e+06,2126,2105
2.4234e+06,2203,2173
2.4234e+06,2265,2235
2.4234e+06,2295,2290
2.4234e+06,2323,2339
2.4234e+06,2292,2305
2.4234e+06,2220,2263
2.4234e+06,2158,2193
2.4234e+06,2090,2125
2.4234e+06,2066,2084
2.4234e+06,2058,2074
2.4234e+06,2063,2077
2.4235e+06,2063,2075
2.4235e+06,2062,2072
2.4235e+06,2062,2078
2.4235e+06,2061,2077
2.4235e+06,2059,2081
2.4235e+06,2060,2075
2.4235e+06,2055,2073
2.4235e+06,2058,2069
2.4235e+06,2058,2069
2.4235e+06,2065,2076
2.4235e+06,2059,2068
2.4235e+06,2056,2070
2.4235e+06,2054,2065
2.4235e+06,2057,2070
2.4235e+06,2067,2077
2.4235e+06,2054,2072
2.4235e+06,2065,2070
2.4235e+06,2056,2072
2.4235e+06,2060,2071
2.4235e+06,2067,2078
2.4235e+06,2065,2072
2.4235e+06,2064,2070
2.4235e+06,2061,2068
2.4235e+06,2055,2073
2.4235e+06,2070,2078
2.4235e+06,2064,2076
2.4236e+06,2066,2075
2.4236e+06,2063,2071
2.4236e+06,2063,2070
2.4236e+06,2072,2075
2.4236e+06,2072,2078
2.4236e+06,2071,2075
2.4236e+06,2070,2076
2.4236e+06,2072,2078
2.4236e+06,2077,2076
2.4236e+06,2075,2082
2.4236e+06,2076,2078
2.4236e+06,2074,2080
2.4236e+06,2078,2077
2.4236e+06,2079,2081
2.4236e+06,2089,2081
2.4236e+06,2090,2092
2.4236e+06,2082,2079
2.4236e+06,2085,2083
2.4236e+06,2094,2089
2.4236e+06,2102,2091
2.4236e+06,2095,2092
2.4236e+06,2099,2091
2.4236e+06,2101,2089
2.4236e+06,2111,2093
2.4236e+06,2108,2094
2.4237e+06,2112,2100
2.4237e+06,2110,2093
2.4237e+06,2111,2099
2.4237e+06,2117,2102
2.4237e+06,2122,2101
2.4237e+06,2119,2103
2.4237e+06,2120,2102
2.4237e+06,2120,2098
2.4237e+06,2121,2101
2.4237e+06,2116,2101
2.4237e+06,2115,2107
2.4237e+06,2114,2099
2.4237e+06,2111,2102
2.4237e+06,2104,2094
2.4237e+06,2103,2096
2.4237e+06,2091,2093
2.4237e+06,2082,2087
2.4237e+06,2073,2087
2.4237e+06,2075,2081
2.4237e+06,2074,2087
2.4237e+06,2067,2086
2.4237e+06,2066,2083
2.4237e+06,2062,2075
2.4237e+06,2057,2073
2.4237e+06,2056,2076
2.4237e+06,2058,2075
2.4238e+06,2055,2074
2.4238e+06,2053,2073
2.4238e+06,2053,2071
2.4238e+06,2057,2074
2.4238e+06,2058,2081
2.4238e+06,2056,2071
2.4238e+06,2043,2071
2.4238e+06,2045,2067
2.4238e+06,2056,2073
2.4238e+06,2051,2078
2.4238e+06,2052,2072
2.4238e+06,2046,2066
2.4238e+06,2053,2067
2.4238e+06,2044,2070
2.4238e+06,2057,2075
2.4238e+06,2055,2070
2.4238e+06,2049,2076
2.4238e+06,2048,2069
2.4238e+06,2059,2069
2.4238e+06,2057,2073
2.4238e+06,2056,2075
2.4238e+06,2052,2070
2.4238e+06,2051,2065
2.4238e+06,2056,2071
2.4238e+06,2057,2075
2.4238e+06,2058,2073
2.4239e+06,2049,2070
2.4239e+06,2052,2070
2.4239e+06,2054,2068
2.4239e+06,2057,2079
2.4239e+06,2056,2077
2.4239e+06,2053,2068
2.4239e+06,2052,2067
2.4239e+06,2057,2075
2.4239e+06,2058,2071
2.4239e+06,2049,2069
2.4239e+06,2055,2070
2.4239e+06,2054,2069
2.4239e+06,2046,2064
2.4239e+06,2050,2071
2.4239e+06,2059,2077
2.4239e+06,2054,2070
2.4239e+06,2043,2063
2.4239e+06,2054,2065
2.4239e+06,2053,2070
2.4239e+06,2052,2070
2.4239e+06,2049,2066
2.4239e+06,2047,2064
2.4239e+06,2056,2072
2.4239e+06,2048,2067
2.4239e+06,2051,2067
2.424e+06,2052,2073
2.424e+06,2051,2064
2.424e+06,2051,2064
2.424e+06,2051,2066
2.424e+06,2053,2070
2.424e+06,2051,2069
2.424e+06,2050,2068
2.424e+06,2048,2064
2.424e+06,2051,2064
2.424e+06,2051,2070
2.424e+06,2047,2064
2.424e+06,2041,2065
2.424e+06,2043,2061
2.424e+06,2052,2064
2.424e+06,2051,2070
2.424e+06,2050,2065
2.424e+06,2046,2060
2.424e+06,2046,2062
2.424e+06,2051,2060
2.424e+06,2057,2078
2.424e+06,2059,2074
2.424e+06,2053,2075
2.424e+06,2052,2074
2.424e+06,2061,2076
2.424e+06,2062,2082
2.424e+06,2065,2081
2.4241e+06,2072,2089
2.4241e+06,2076,2083
2.4241e+06,2074,2090
2.4241e+06,2081,2092
2.4241e+06,2086,2094
2.4241e+06,2075,2083
2.4241e+06,2081,2089
2.4241e+06,2083,2088
2.4241e+06,2079,2091
2.4241e+06,2072,2088
2.4241e+06,2065,2081
2.4241e+06,2054,2075
2.4241e+06,2052,2066
2.4241e+06,2047,2063
2.4241e+06,2047,2062
2.4241e+06,2041,2055
2.4241e+06,2042,2054
2.4241e+06,2038,2055
2.4241e+06,2039,2048
2.4241e+06,2042,2060
2.4241e+06,2036,2055
2.4241e+06,2034,2051
2.4241e+06,2038,2058
2.4241e+06,2037,2055
2.4241e+06,2039,2048
2.4242e+06,2037,2055
2.4242e+06,2038,2051
2.4242e+06,2033,2053
2.4242e+06,2039,2053
2.4242e+06,2038,2054
2.4242e+06,2034,2050
2.4242e+06,2019,2037
2.4242e+06,2011,2024
2.4242e+06,2009,2017
2.4242e+06,2023,2020
2.4242e+06,2069,2049
2.4242e+06,2132,2106
2.4242e+06,2201,2163
2.4242e+06,2257,2220
2.4242e+06,2301,2301
2.4242e+06,2300,2316
2.4242e+06,2249,2265
2.4242e+06,2181,2222
2.4242e+06,2125,2162
2.4242e+06,2075,2101
2.4242e+06,2043,2063
2.4242e+06,2044,2049
2.4242e+06,2041,2050
2.4242e+06,2041,2048
2.4242e+06,2045,2063
2.4242e+06,2046,2053
2.4243e+06,2037,2047
2.4243e+06,2043,2051
2.4243e+06,2043,2056
2.4243e+06,2041,2056
2.4243e+06,2043,2050
2.4243e+06,2040,2051
2.4243e+06,2037,2046
2.4243e+06,2037,2051
2.4243e+06,2039,2048
2.4243e+06,2040,2049
2.4243e+06,2043,2055
2.4243e+06,2041,2048
2.4243e+06,2038,2046
2.4243e+06,2041,2052
2.4243e+06,2036,2051
2.4243e+06,2039,2050
2.4243e+06,2044,2053
2.4243e+06,2040,2048
2.4243e+06,2042,2051
2.4243e+06,2050,2056
2.4243e+06,2043,2052
2.4243e+06,2042,2048
2.4243e+06,2042,2045
2.4243e+06,2042,2042
2.4243e+06,2047,2057
2.4243e+06,2048,2053
2.4244e+06,2044,2041
2.4244e+06,2048,2051
2.4244e+06,2051,2052
2.4244e+06,2052,2060
2.4244e+06,2052,2060
2.4244e+06,2048,2052
2.4244e+06,2048,2053
2.4244e+06,2056,2054
2.4244e+06,2059,2058
2.4244e+06,2058,2060
2.4244e+06,2058,2058
2.4244e+06,2058,2054
2.4244e+06,2058,2055
2.4244e+06,2063,2063
2.4244e+06,2069,2067
2.4244e+06,2067,2064
2.4244e+06,2067,2055
2.4244e+06,2073,2062
2.4244e+06,2076,2065
2.4244e+06,2075,2067
2.4244e+06,2084,2070
2.4244e+06,2079,2064
2.4244e+06,2086,2067
2.4244e+06,2087,2067
2.4244e+06,2090,2070
2.4245e+06,2094,2071
2.4245e+06,2095,2069
2.4245e+06,2092,2072
2.4245e+06,2095,2077
2.4245e+06,2095,2077
2.4245e+06,2096,2076
2.4245e+06,2093,2074
2.4245e+06,2093,2077
2.4245e+06,2093,2079
2.4245e+06,2092,2074
2.4245e+06,2081,2067
2.4245e+06,2070,2063
2.4245e+06,2069,2062
2.4245e+06,2060,2061
2.4245e+06,2061,2065
2.4245e+06,2053,2063
2.4245e+06,2044,2050
2.4245e+06,2040,2051
2.4245e+06,2040,2055
2.4245e+06,2040,2049
2.4245e+06,2036,2054
2.4245e+06,2037,2052
2.4245e+06,2027,2048
2.4245e+06,2032,2047
2.4245e+06,2034,2056
2.4245e+06,2034,2048
2.4246e+06,2030,2047
2.4246e+06,2026,2047
2.4246e+06,2027,2042
2.4246e+06,2029,2047
2.4246e+06,2034,2053
2.4246e+06,2034,2044
2.4246e+06,2028,2044
2.4246e+06,2029,2045
2.4246e+06,2033,2049
2.4246e+06,2029,2043
2.4246e+06,2030,2047
2.4246e+06,2028,2042
2.4246e+06,2030,2046
2.4246e+06,2031,2049
2.4246e+06,2036,2050
2.4246e+06,2032,2048
2.4246e+06,2026,2042
2.4246e+06,2031,2045
2.4246e+06,2036,2050
2.4246e+06,2034,2049
2.4246e+06,2031,2044
2.4246e+06,2032,2047
2.4246e+06,2027,2045
2.4246e+06,2032,2043
2.4246e+06,2038,2050
2.4247e+06,2034,2047
2.4247e+06,2023,2041
2.4247e+06,2028,2052
2.4247e+06,2028,2045
2.4247e+06,2035,2049
2.4247e+06,2037,2047
2.4247e+06,2026,2049
2.4247e+06,2031,2047
2.4247e+06,2036,2044
2.4247e+06,2029,2044
2.4247e+06,2033,2051
2.4247e+06,2027,2046
2.4247e+06,2030,2042
2.4247e+06,2030,2037
2.4247e+06,2028,2049
2.4247e+06,2040,2049
2.4247e+06,2021,2039
2.4247e+06,2028,2041
2.4247e+06,2033,2046
2.4247e+06,2036,2043
2.4247e+06,2026,2045
2.4247e+06,2032,2048
2.4247e+06,2022,2045
2.4247e+06,2030,2046
2.4247e+06,2031,2047
2.4247e+06,2031,2045
2.4248e+06,2030,2047
2.4248e+06,2027,2041
2.4248e+06,2025,2040
2.4248e+06,2029,2045
2.4248e+06,2030,2045
2.4248e+06,2029,2037
2.4248e+06,2019,2040
2.4248e+06,2022,2044
2.4248e+06,2035,2039
2.4248e+06,2031,2044
2.4248e+06,2032,2047
2.4248e+06,2026,2041
2.4248e+06,2023,2040
2.4248e+06,2029,2041
2.4248e+06,2025,2046
2.4248e+06,2018,2041
2.4248e+06,2024,2045
2.4248e+06,2021,2041
2.4248e+06,2028,2043
2.4248e+06,2028,2043
2.4248e+06,2025,2042
2.4248e+06,2023,2039
2.4248e+06,2023,2040
2.4248e+06,2019,2032
2.4248e+06,2030,2044
2.4248e+06,2022,2042
2.4249e+06,2032,2047
2.4249e+06,2033,2048
2.4249e+06,2038,2056
2.4249e+06,2040,2060
2.4249e+06,2036,2052
2.4249e+06,2036,2051
2.4249e+06,2041,2049
2.4249e+06,2056,2068
2.4249e+06,2056,2067
2.4249e+06,2065,2066
2.4249e+06,2054,2064
2.4249e+06,2055,2064
2.4249e+06,2060,2068
2.4249e+06,2055,2066
2.4249e+06,2063,2067
2.4249e+06,2055,2063
2.4249e+06,2048,2059
2.4249e+06,2042,2055
2.4249e+06,2039,2054
2.4249e+06,2031,2041
2.4249e+06,2023,2038
2.4249e+06,2018,2035
2.4249e+06,2021,2039
2.4249e+06,2026,2038
2.4249e+06,2020,2035
2.425e+06,2021,2035
2.425e+06,2019,2032
2.425e+06,2015,2033
2.425e+06,2017,2033
2.425e+06,2018,2030
2.425e+06,2017,2031
2.425e+06,2015,2031
2.425e+06,2012,2025
2.425e+06,2020,2037
2.425e+06,2020,2034
2.425e+06,2021,2032
2.425e+06,2011,2031
2.425e+06,2014,2024
2.425e+06,2001,2015
2.425e+06,1996,2010
2.425e+06,1995,1997
2.425e+06,2015,2010
2.425e+06,2058,2039
2.425e+06,2124,2092
2.425e+06,2187,2151
2.425e+06,2242,2212
2.425e+06,2273,2276
2.425e+06,2274,2287
2.425e+06,2215,2239
2.425e+06,2162,2198
2.425e+06,2097,2134
2.4251e+06,2038,2062
2.4251e+06,2011,2033
2.4251e+06,2017,2032
2.4251e+06,2026,2034
2.4251e+06,2026,2037
2.4251e+06,2022,2038
2.4251e+06,2030,2037
2.4251e+06,2022,2035
2.4251e+06,2028,2040
2.4251e+06,2018,2036
2.4251e+06,2019,2032
2.4251e+06,2019,2032
2.4251e+06,2020,2031
2.4251e+06,2022,2033
2.4251e+06,2024,2038
2.4251e+06,2024,2032
2.4251e+06,2024,2031
2.4251e+06,2016,2029
2.4251e+06,2022,2033
2.4251e+06,2023,2032
2.4251e+06,2020,2037
2.4251e+06,2027,2032
2.4251e+06,2026,2031
2.4251e+06,2026,2033
2.4251e+06,2030,2040
2.4252e+06,2026,2036
2.4252e+06,2022,2031
2.4252e+06,2027,2040
2.4252e+06,2030,2037
2.4252e+06,2031,2039
2.4252e+06,2034,2041
2.4252e+06,2030,2033
2.4252e+06,2030,2040
2.4252e+06,2033,2037
2.4252e+06,2035,2045
2.4252e+06,2048,2052
2.4252e+06,2033,2040
2.4252e+06,2036,2037
2.4252e+06,2040,2046
2.4252e+06,2037,2044
2.4252e+06,2047,2045
2.4252e+06,2044,2045
2.4252e+06,2040,2039
2.4252e+06,2051,2047
2.4252e+06,2054,2054
2.4252e+06,2054,2051
2.4252e+06,2051,2050
2.4252e+06,2059,2054
2.4252e+06,2052,2050
2.4252e+06,2063,2052
2.4252e+06,2063,2060
2.4253e+06,2066,2056
2.4253e+06,2067,2058
2.4253e+06,2070,2053
2.4253e+06,2080,2067
2.4253e+06,2070,2063
2.4253e+06,2082,2067
2.4253e+06,2078,2065
2.4253e+06,2078,2057
2.4253e+06,2090,2070
2.4253e+06,2089,2075
2.4253e+06,2092,2068
2.4253e+06,2085,2066
2.4253e+06,2081,2066
2.4253e+06,2087,2066
2.4253e+06,2084,2068
2.4253e+06,2087,2072
2.4253e+06,2079,2063
2.4253e+06,2068,2057
2.4253e+06,2071,2067
2.4253e+06,2060,2064
2.4253e+06,2054,2055
2.4253e+06,2052,2054
2.4253e+06,2034,2048
2.4253e+06,2041,2048
2.4253e+06,2044,2053
2.4253e+06,2035,2044
2.4254e+06,2027,2042
2.4254e+06,2029,2044
2.4254e+06,2023,2042
2.4254e+06,2026,2041
2.4254e+06,2026,2047
2.4254e+06,2021,2041
2.4254e+06,2020,2043
2.4254e+06,2024,2041
2.4254e+06,2023,2043
2.4254e+06,2026,2040
2.4254e+06,2022,2039
2.4254e+06,2016,2039
2.4254e+06,2019,2038
2.4254e+06,2017,2040
2.4254e+06,2024,2041
2.4254e+06,2025,2047
2.4254e+06,2021,2042
2.4254e+06,2026,2044
2.4254e+06,2028,2043
2.4254e+06,2027,2047
2.4254e+06,2022,2042
2.4254e+06,2018,2036
2.4254e+06,2026,2037
2.4254e+06,2029,2043
2.4254e+06,2023,2049
2.4255e+06,2028,2035
2.4255e+06,2022,2039
2.4255e+06,2025,2041
2.4255e+06,2025,2041
2.4255e+06,2028,2042
2.4255e+06,2027,2044
2.4255e+06,2024,2036
2.4255e+06,2026,2038
2.4255e+06,2029,2043
2.4255e+06,2021,2040
2.4255e+06,2033,2043
2.4255e+06,2027,2039
2.4255e+06,2023,2037
2.4255e+06,2027,2043
2.4255e+06,2028,2039
2.4255e+06,2017,2039
2.4255e+06,2023,2034
2.4255e+06,2023,2037
2.4255e+06,2030,2041
2.4255e+06,2027,2039
2.4255e+06,2023,2041
2.4255e+06,2026,2045
2.4255e+06,2024,2039
2.4255e+06,2023,2037
2.4255e+06,2027,2049
2.4255e+06,2027,2043
2.4256e+06,2019,2039
2.4256e+06,2023,2043
2.4256e+06,2020,2035
2.4256e+06,2024,2040
2.4256e+06,2027,2046
2.4256e+06,2021,2040
2.4256e+06,2020,2039
2.4256e+06,2022,2040
2.4256e+06,2023,2042
2.4256e+06,2022,2041
2.4256e+06,2016,2039
2.4256e+06,2017,2039
2.4256e+06,2021,2033
2.4256e+06,2023,2041
2.4256e+06,2023,2045
2.4256e+06,2025,2037
2.4256e+06,2017,2034
2.4256e+06,2015,2036
2.4256e+06,2021,2038
2.4256e+06,2020,2041
2.4256e+06,2023,2043
2.4256e+06,2016,2029
2.4256e+06,2019,2035
2.4256e+06,2021,2040
2.4256e+06,2025,2045
2.4257e+06,2018,2037
2.4257e+06,2028,2042
2.4257e+06,2026,2042
2.4257e+06,2033,2048
2.4257e+06,2027,2050
2.4257e+06,2031,2050
2.4257e+06,2033,2046
2.4257e+06,2031,2045
2.4257e+06,2043,2060
2.4257e+06,2050,2062
2.4257e+06,2061,2065
2.4257e+06,2055,2059
2.4257e+06,2049,2062
2.4257e+06,2057,2062
2.4257e+06,2059,2063
2.4257e+06,2057,2065
2.4257e+06,2043,2059
2.4257e+06,2041,2059
2.4257e+06,2041,2051
2.4257e+06,2033,2048
2.4257e+06,2026,2039
2.4257e+06,2017,2033
2.4257e+06,2019,2031
2.4257e+06,2016,2033
2.4257e+06,2022,2039
2.4257e+06,2021,2029
2.4258e+06,2017,2031
2.4258e+06,2010,2027
2.4258e+06,2014,2028
2.4258e+06,2016,2036
2.4258e+06,2021,2026
2.4258e+06,2015,2032
2.4258e+06,2015,2026
2.4258e+06,2012,2023
2.4258e+06,2011,2029
2.4258e+06,2018,2029
2.4258e+06,2016,2035
2.4258e+06,2017,2027
2.4258e+06,2009,2017
2.4258e+06,2004,2015
2.4258e+06,1995,2003
2.4258e+06,1992,1996
2.4258e+06,2010,2014
2.4258e+06,2057,2048
2.4258e+06,2128,2099
2.4258e+06,2203,2165
2.4258e+06,2249,2221
2.4258e+06,2284,2274
2.4258e+06,2261,2268
2.4258e+06,2206,2230
2.4258e+06,2150,2191
2.4258e+06,2089,2133
2.4259e+06,2043,2070
2.4259e+06,2011,2029
2.4259e+06,2016,2021
2.4259e+06,2012,2021
2.4259e+06,2011,2021
2.4259e+06,2017,2019
2.4259e+06,2017,2028
2.4259e+06,2014,2026
2.4259e+06,2026,2029
2.4259e+06,2020,2026
2.4259e+06,2018,2021
2.4259e+06,2017,2018
2.4259e+06,2021,2024
2.4259e+06,2020,2022
2.4259e+06,2017,2027
2.4259e+06,2019,2020
2.4259e+06,2019,2020
2.4259e+06,2022,2020
2.4259e+06,2022,2022
2.4259e+06,2033,2026
2.4259e+06,2023,2023
2.4259e+06,2020,2017
2.4259e+06,2021,2024
2.4259e+06,2027,2027
2.4259e+06,2027,2023
2.426e+06,2020,2026
2.426e+06,2026,2016
2.426e+06,2025,2020
2.426e+06,2030,2021
2.426e+06,2031,2023
2.426e+06,2029,2025
2.426e+06,2030,2027
2.426e+06,2022,2019
2.426e+06,2033,2026
2.426e+06,2038,2028
2.426e+06,2035,2027
2.426e+06,2032,2024
2.426e+06,2026,2019
2.426e+06,2042,2028
2.426e+06,2046,2038
2.426e+06,2040,2027
2.426e+06,2040,2031
2.426e+06,2042,2026
2.426e+06,2044,2030
2.426e+06,2051,2033
2.426e+06,2051,2031
2.426e+06,2049,2035
2.426e+06,2049,2034
2.426e+06,2052,2032
2.426e+06,2058,2041
2.426e+06,2067,2044
2.4261e+06,2060,2041
2.4261e+06,2059,2038
2.4261e+06,2066,2045
2.4261e+06,2071,2046
2.4261e+06,2076,2051
2.4261e+06,2073,2041
2.4261e+06,2071,2043
2.4261e+06,2079,2043
2.4261e+06,2083,2053
2.4261e+06,2087,2050
2.4261e+06,2082,2050
2.4261e+06,2084,2049
2.4261e+06,2084,2053
2.4261e+06,2084,2049
2.4261e+06,2082,2057
2.4261e+06,2086,2049
2.4261e+06,2074,2048
2.4261e+06,2071,2045
2.4261e+06,2065,2044
2.4261e+06,2060,2046
2.4261e+06,2056,2043
2.4261e+06,2043,2040
2.4261e+06,2037,2037
2.4261e+06,2045,2037
2.4261e+06,2042,2047
2.4262e+06,2030,2035
2.4262e+06,2028,2035
2.4262e+06,2028,2028
2.4262e+06,2022,2030
2.4262e+06,2024,2030
2.4262e+06,2028,2035
2.4262e+06,2020,2032
2.4262e+06,2020,2030
2.4262e+06,2019,2031
2.4262e+06,2017,2033
2.4262e+06,2020,2034
2.4262e+06,2020,2027
2.4262e+06,2016,2024
2.4262e+06,2019,2030
2.4262e+06,2023,2034
2.4262e+06,2024,2037
2.4262e+06,2006,2028
2.4262e+06,2021,2026
2.4262e+06,2016,2036
2.4262e+06,2025,2034
2.4262e+06,2020,2031
2.4262e+06,2022,2036
2.4262e+06,2017,2026
2.4262e+06,2019,2029
2.4262e+06,2025,2037
2.4262e+06,2018,2034
2.4263e+06,2022,2035
2.4263e+06,2020,2028
2.4263e+06,2024,2034
2.4263e+06,2024,2036
2.4263e+06,2025,2037
2.4263e+06,2020,2031
2.4263e+06,2018,2029
2.4263e+06,2021,2033
2.4263e+06,2025,2032
2.4263e+06,2033,2039
2.4263e+06,2023,2029
2.4263e+06,2024,2033
2.4263e+06,2018,2027
2.4263e+06,2020,2029
2.4263e+06,2027,2030
2.4263e+06,2028,2039
2.4263e+06,2022,2032
2.4263e+06,2022,2030
2.4263e+06,2025,2039
2.4263e+06,2030,2036
2.4263e+06,2024,2035
2.4263e+06,2019,2028
2.4263e+06,2019,2027
2.4263e+06,2011,2034
2.4263e+06,2026,2036
2.4263e+06,2026,2036
2.4264e+06,2022,2026
2.4264e+06,2020,2033
2.4264e+06,2015,2032
2.4264e+06,2026,2033
2.4264e+06,2024,2032
2.4264e+06,2017,2025
2.4264e+06,2020,2027
2.4264e+06,2021,2030
2.4264e+06,2025,2026
2.4264e+06,2016,2031
2.4264e+06,2019,2030
2.4264e+06,2018,2032
2.4264e+06,2013,2027
2.4264e+06,2018,2035
2.4264e+06,2024,2032
2.4264e+06,2015,2031
2.4264e+06,2017,2027
2.4264e+06,2016,2026
2.4264e+06,2019,2030
2.4264e+06,2028,2038
2.4264e+06,2025,2034
2.4264e+06,2031,2035
2.4264e+06,2029,2040
2.4264e+06,2033,2045
2.4264e+06,2031,2041
2.4265e+06,2028,2043
2.4265e+06,2036,2042
2.4265e+06,2049,2055
2.4265e+06,2048,2054
2.4265e+06,2050,2056
2.4265e+06,2054,2052
2.4265e+06,2056,2059
2.4265e+06,2049,2053
2.4265e+06,2060,2059
2.4265e+06,2053,2062
2.4265e+06,2051,2060
2.4265e+06,2047,2053
2.4265e+06,2032,2046
2.4265e+06,2032,2038
2.4265e+06,2028,2040
2.4265e+06,2024,2036
2.4265e+06,2017,2030
2.4265e+06,2017,2028
2.4265e+06,2016,2026
2.4265e+06,2019,2031
2.4265e+06,2015,2029
2.4265e+06,2011,2023
2.4265e+06,2012,2024
2.4265e+06,2011,2024
2.4265e+06,2018,2031
2.4265e+06,2017,2029
2.4266e+06,2013,2022
2.4266e+06,2006,2022
2.4266e+06,2011,2022
2.4266e+06,2020,2031
2.4266e+06,2018,2031
2.4266e+06,2013,2025
2.4266e+06,2013,2024
2.4266e+06,2007,2018
2.4266e+06,1993,2003
2.4266e+06,1981,1995
2.4266e+06,2005,2001
2.4266e+06,2049,2029
2.4266e+06,2103,2073
2.4266e+06,2179,2144
2.4266e+06,2247,2205
2.4266e+06,2276,2269
2.4266e+06,2277,2288
2.4266e+06,2228,2241
2.4266e+06,2170,2206
2.4266e+06,2104,2141
2.4266e+06,2052,2083
2.4266e+06,2020,2041
2.4266e+06,2010,2023
2.4266e+06,2016,2026
2.4266e+06,2024,2027
2.4267e+06,2026,2036
2.4267e+06,2021,2029
2.4267e+06,2026,2033
2.4267e+06,2024,2040
2.4267e+06,2011,2034
2.4267e+06,2022,2034
2.4267e+06,2010,2028
2.4267e+06,2027,2036
2.4267e+06,2023,2030
2.4267e+06,2021,2029
2.4267e+06,2021,2034
2.4267e+06,2017,2030
2.4267e+06,2012,2023
2.4267e+06,2023,2030
2.4267e+06,2023,2029
2.4267e+06,2024,2031
2.4267e+06,2019,2027
2.4267e+06,2022,2027
2.4267e+06,2023,2031
2.4267e+06,2025,2031
2.4267e+06,2026,2034
2.4267e+06,2027,2031
2.4267e+06,2018,2035
2.4267e+06,2030,2038
2.4267e+06,2031,2040
2.4267e+06,2030,2038
2.4268e+06,2028,2031
2.4268e+06,2024,2028
2.4268e+06,2028,2033
2.4268e+06,2030,2037
2.4268e+06,2035,2027
2.4268e+06,2034,2037
2.4268e+06,2029,2032
2.4268e+06,2040,2034
2.4268e+06,2040,2035
2.4268e+06,2040,2038
2.4268e+06,2039,2036
2.4268e+06,2045,2043
2.4268e+06,2045,2047
2.4268e+06,2051,2046
2.4268e+06,2045,2043
2.4268e+06,2049,2050
2.4268e+06,2049,2038
2.4268e+06,2048,2042
2.4268e+06,2054,2045
2.4268e+06,2065,2053
2.4268e+06,2064,2053
2.4268e+06,2069,2057
2.4268e+06,2059,2048
2.4268e+06,2071,2057
2.4268e+06,2075,2058
2.4268e+06,2079,2055
2.4269e+06,2074,2055
2.4269e+06,2076,2055
2.4269e+06,2082,2059
2.4269e+06,2082,2062
2.4269e+06,2087,2064
2.4269e+06,2083,2057
2.4269e+06,2084,2063
2.4269e+06,2088,2061
2.4269e+06,2084,2059
2.4269e+06,2082,2062
2.4269e+06,2076,2059
2.4269e+06,2071,2055
2.4269e+06,2065,2053
2.4269e+06,2052,2055
2.4269e+06,2055,2049
2.4269e+06,2050,2050
2.4269e+06,2042,2045
2.4269e+06,2043,2045
2.4269e+06,2033,2040
2.4269e+06,2032,2040
2.4269e+06,2023,2035
2.4269e+06,2021,2031
2.4269e+06,2022,2032
2.4269e+06,2028,2038
2.4269e+06,2026,2039
2.427e+06,2020,2030
2.427e+06,2020,2031
2.427e+06,2020,2034
2.427e+06,2019,2025
2.427e+06,2019,2035
2.427e+06,2020,2034
2.427e+06,2018,2033
2.427e+06,2017,2031
2.427e+06,2018,2032
2.427e+06,2019,2037
2.427e+06,2018,2033
2.427e+06,2015,2034
2.427e+06,2014,2033
2.427e+06,2014,2033
2.427e+06,2019,2041
2.427e+06,2024,2039
2.427e+06,2018,2033
2.427e+06,2012,2026
2.427e+06,2018,2034
2.427e+06,2016,2036
2.427e+06,2016,2030
2.427e+06,2020,2038
2.427e+06,2020,2034
2.427e+06,2021,2031
2.427e+06,2028,2035
2.427e+06,2023,2036
2.4271e+06,2019,2034
2.4271e+06,2017,2031
2.4271e+06,2021,2030
2.4271e+06,2019,2037
2.4271e+06,2020,2036
2.4271e+06,2023,2031
2.4271e+06,2016,2032
2.4271e+06,2019,2031
2.4271e+06,2017,2037
2.4271e+06,2024,2034
2.4271e+06,2019,2036
2.4271e+06,2018,2030
2.4271e+06,2016,2032
2.4271e+06,2026,2031
2.4271e+06,2024,2037
2.4271e+06,2008,2034
2.4271e+06,2023,2037
2.4271e+06,2017,2030
2.4271e+06,2019,2028
2.4271e+06,2019,2034
2.4271e+06,2012,2034
2.4271e+06,2018,2029
2.4271e+06,2012,2029
2.4271e+06,2018,2031
2.4271e+06,2019,2036
2.4272e+06,2017,2033
2.4272e+06,2016,2031
2.4272e+06,2014,2028
2.4272e+06,2013,2031
2.4272e+06,2021,2034
2.4272e+06,2013,2038
2.4272e+06,2012,2027
2.4272e+06,2017,2030
2.4272e+06,2008,2035
2.4272e+06,2021,2032
2.4272e+06,2015,2033
2.4272e+06,2015,2028
2.4272e+06,2011,2021
2.4272e+06,2016,2032
2.4272e+06,2016,2032
2.4272e+06,2018,2033
2.4272e+06,2012,2030
2.4272e+06,2002,2025
2.4272e+06,2013,2031
2.4272e+06,2020,2036
2.4272e+06,2011,2031
2.4272e+06,2017,2030
2.4272e+06,2011,2033
2.4272e+06,2013,2028
2.4272e+06,2019,2036
2.4272e+06,2020,2040
2.4273e+06,2025,2043
2.4273e+06,2026,2040
2.4273e+06,2026,2035
2.4273e+06,2021,2044
2.4273e+06,2030,2045
2.4273e+06,2037,2045
2.4273e+06,2040,2052
2.4273e+06,2046,2054
2.4273e+06,2048,2057
2.4273e+06,2046,2053
2.4273e+06,2047,2052
2.4273e+06,2048,2052
2.4273e+06,2047,2051
2.4273e+06,2042,2056
2.4273e+06,2042,2053
2.4273e+06,2037,2050
2.4273e+06,2026,2045
2.4273e+06,2021,2033
2.4273e+06,2020,2035
2.4273e+06,2015,2035
2.4273e+06,2019,2030
2.4273e+06,2010,2027
2.4273e+06,2006,2019
2.4273e+06,2006,2024
2.4273e+06,2011,2033
2.4273e+06,2011,2025
2.4274e+06,1999,2016
2.4274e+06,2005,2023
2.4274e+06,2004,2024
2.4274e+06,2010,2025
2.4274e+06,2008,2022
2.4274e+06,2007,2022
2.4274e+06,2007,2024
2.4274e+06,2008,2022
2.4274e+06,2009,2024
2.4274e+06,2010,2029
2.4274e+06,2004,2015
2.4274e+06,1996,2009
2.4274e+06,1977,1992
2.4274e+06,1987,1995
2.4274e+06,2010,2008
2.4274e+06,2063,2037
2.4274e+06,2123,2088
2.4274e+06,2192,2156
2.4274e+06,2239,2213
2.4274e+06,2282,2286
2.4274e+06,2258,2274
2.4274e+06,2197,2227
2.4274e+06,2134,2175
2.4274e+06,2079,2109
2.4274e+06,2027,2048
2.4275e+06,2008,2029
2.4275e+06,2012,2018
2.4275e+06,2011,2024
2.4275e+06,2016,2027
2.4275e+06,2019,2032
2.4275e+06,2010,2031
2.4275e+06,2014,2025
2.4275e+06,2013,2021
2.4275e+06,2004,2018
2.4275e+06,2017,2024
2.4275e+06,2011,2024
2.4275e+06,2004,2017
2.4275e+06,2009,2017
2.4275e+06,2012,2021
2.4275e+06,2014,2022
2.4275e+06,2011,2022
2.4275e+06,2008,2020
2.4275e+06,2011,2019
2.4275e+06,2015,2020
2.4275e+06,2010,2020
2.4275e+06,2011,2022
2.4275e+06,2016,2018
2.4275e+06,2006,2017
2.4275e+06,2016,2024
2.4275e+06,2018,2024
2.4275e+06,2022,2027
2.4276e+06,2016,2023
2.4276e+06,2018,2019
2.4276e+06,2007,2023
2.4276e+06,2020,2027
2.4276e+06,2021,2026
2.4276e+06,2021,2023
2.4276e+06,2019,2022
2.4276e+06,2019,2022
2.4276e+06,2031,2029
2.4276e+06,2024,2028
2.4276e+06,2025,2027
2.4276e+06,2025,2027
2.4276e+06,2026,2030
2.4276e+06,2032,2033
2.4276e+06,2035,2033
2.4276e+06,2025,2031
2.4276e+06,2036,2026
2.4276e+06,2035,2029
2.4276e+06,2043,2032
2.4276e+06,2042,2042
2.4276e+06,2044,2042
2.4276e+06,2040,2035
2.4276e+06,2045,2039
2.4276e+06,2053,2041
2.4276e+06,2059,2046
2.4277e+06,2058,2043
2.4277e+06,2056,2042
2.4277e+06,2055,2044
2.4277e+06,2066,2049
2.4277e+06,2070,2052
2.4277e+06,2075,2055
2.4277e+06,2067,2048
2.4277e+06,2077,2052
2.4277e+06,2075,2052
2.4277e+06,2075,2056
2.4277e+06,2080,2064
2.4277e+06,2079,2055
2.4277e+06,2072,2057
2.4277e+06,2079,2058
2.4277e+06,2068,2055
2.4277e+06,2074,2058
2.4277e+06,2060,2050
2.4277e+06,2052,2042
2.4277e+06,2053,2047
2.4277e+06,2048,2045
2.4277e+06,2040,2041
2.4277e+06,2031,2033
2.4277e+06,2027,2032
2.4277e+06,2017,2030
2.4277e+06,2020,2032
2.4277e+06,2012,2031
2.4278e+06,2019,2025
2.4278e+06,2009,2025
2.4278e+06,2011,2026
2.4278e+06,2003,2025
2.4278e+06,2011,2025
2.4278e+06,2013,2033
2.4278e+06,2001,2021
2.4278e+06,2010,2022
2.4278e+06,2011,2028
2.4278e+06,2011,2028
2.4278e+06,2007,2026
2.4278e+06,2007,2025
2.4278e+06,2006,2022
2.4278e+06,2005,2027
2.4278e+06,2007,2026
2.4278e+06,2004,2029
2.4278e+06,2005,2023
2.4278e+06,2008,2021
2.4278e+06,2008,2023
2.4278e+06,2009,2029
2.4278e+06,2010,2026
2.4278e+06,2007,2025
2.4278e+06,2006,2021
2.4278e+06,2005,2025
2.4278e+06,2015,2027
2.4278e+06,2012,2021
2.4279e+06,2003,2026
2.4279e+06,2007,2020
2.4279e+06,2010,2024
2.4279e+06,2013,2027
2.4279e+06,2010,2025
2.4279e+06,2009,2021
2.4279e+06,2007,2023
2.4279e+06,2007,2020
2.4279e+06,2007,2031
2.4279e+06,2007,2022
2.4279e+06,2010,2027
2.4279e+06,2000,2020
2.4279e+06,2008,2020
2.4279e+06,2005,2023
2.4279e+06,2006,2025
2.4279e+06,2010,2024
2.4279e+06,2005,2015
2.4279e+06,2004,2016
2.4279e+06,2013,2025
2.4279e+06,2016,2032
2.4279e+06,2000,2020
2.4279e+06,1999,2017
2.4279e+06,2001,2023
2.4279e+06,2013,2020
2.4279e+06,2002,2022
2.428e+06,2009,2023
2.428e+06,2004,2017
2.428e+06,2004,2018
2.428e+06,2009,2019
2.428e+06,2008,2022
2.428e+06,2009,2028
2.428e+06,2002,2019
2.428e+06,1997,2021
2.428e+06,2003,2016
2.428e+06,2006,2026
2.428e+06,2004,2018
2.428e+06,2002,2019
2.428e+06,2000,2015
2.428e+06,2001,2018
2.428e+06,2011,2027
2.428e+06,2002,2019
2.428e+06,2003,2015
2.428e+06,2005,2017
2.428e+06,2002,2018
2.428e+06,2005,2026
2.428e+06,2003,2018
2.428e+06,1999,2018
2.428e+06,2004,2015
2.428e+06,2000,2015
2.428e+06,2007,2019
2.428e+06,2007,2023
2.4281e+06,2001,2018
2.4281e+06,1995,2016
2.4281e+06,2003,2018
2.4281e+06,2002,2017
2.4281e+06,2006,2014
2.4281e+06,2005,2019
2.4281e+06,2009,2021
2.4281e+06,2015,2023
2.4281e+06,2017,2032
2.4281e+06,2014,2027
2.4281e+06,2014,2028
2.4281e+06,2013,2028
2.4281e+06,2016,2031
2.4281e+06,2025,2027
2.4281e+06,2029,2037
2.4281e+06,2027,2032
2.4281e+06,2035,2033
2.4281e+06,2039,2044
2.4281e+06,2029,2037
2.4281e+06,2029,2044
2.4281e+06,2042,2041
2.4281e+06,2029,2034
2.4281e+06,2027,2034
2.4281e+06,2017,2035
2.4281e+06,2027,2037
2.4282e+06,2008,2021
2.4282e+06,2000,2019
2.4282e+06,2003,2016
2.4282e+06,2004,2016
2.4282e+06,2002,2013
2.4282e+06,2004,2013
2.4282e+06,1995,2010
2.4282e+06,1996,2013
2.4282e+06,2001,2012
2.4282e+06,1998,2013
2.4282e+06,2002,2024
2.4282e+06,1998,2006
2.4282e+06,1990,2012
2.4282e+06,1996,2011
2.4282e+06,2000,2013
2.4282e+06,2001,2020
2.4282e+06,2000,2006
2.4282e+06,1993,2009
2.4282e+06,1997,2004
2.4282e+06,1988,2008
2.4282e+06,1984,1996
2.4282e+06,1973,1987
2.4282e+06,1980,1979
2.4282e+06,2002,1987
2.4282e+06,2047,2028
2.4282e+06,2118,2081
2.4283e+06,2173,2140
2.4283e+06,2227,2195
2.4283e+06,2271,2274
2.4283e+06,2256,2263
2.4283e+06,2196,2218
2.4283e+06,2131,2167
2.4283e+06,2067,2094
2.4283e+06,2016,2039
2.4283e+06,2001,2020
2.4283e+06,1998,2015
2.4283e+06,2005,2013
2.4283e+06,2003,2012
2.4283e+06,2008,2021
2.4283e+06,2013,2023
2.4283e+06,2008,2021
2.4283e+06,2004,2015
2.4283e+06,2004,2015
2.4283e+06,2006,2012
2.4283e+06,2004,2018
2.4283e+06,2005,2019
2.4283e+06,2006,2012
2.4283e+06,2001,2012
2.4283e+06,2008,2010
2.4283e+06,2003,2009
2.4283e+06,2004,2017
2.4283e+06,2007,2009
2.4284e+06,2000,2008
2.4284e+06,2005,2004
2.4284e+06,2009,2014
2.4284e+06,2016,2022
2.4284e+06,2009,2018
2.4284e+06,2011,2016
2.4284e+06,2009,2014
2.4284e+06,2011,2016
2.4284e+06,2014,2021
2.4284e+06,2005,2014
2.4284e+06,2015,2017
2.4284e+06,2012,2017
2.4284e+06,2011,2018
2.4284e+06,2017,2021
2.4284e+06,2019,2019
2.4284e+06,2018,2025
2.4284e+06,2018,2021
2.4284e+06,2019,2015
2.4284e+06,2025,2021
2.4284e+06,2025,2031
2.4284e+06,2027,2023
2.4284e+06,2021,2020
2.4284e+06,2025,2018
2.4284e+06,2029,2034
2.4284e+06,2037,2030
2.4285e+06,2029,2027
2.4285e+06,2025,2031
2.4285e+06,2036,2028
2.4285e+06,2035,2034
2.4285e+06,2043,2036
2.4285e+06,2042,2039
2.4285e+06,2042,2040
2.4285e+06,2045,2035
2.4285e+06,2048,2039
2.4285e+06,2058,2041
2.4285e+06,2058,2046
2.4285e+06,2057,2049
2.4285e+06,2060,2044
2.4285e+06,2059,2047
2.4285e+06,2068,2054
2.4285e+06,2073,2055
2.4285e+06,2072,2051
2.4285e+06,2075,2050
2.4285e+06,2071,2055
2.4285e+06,2075,2058
2.4285e+06,2077,2062
2.4285e+06,2069,2055
2.4285e+06,2066,2054
2.4285e+06,2067,2054
2.4285e+06,2063,2052
2.4285e+06,2056,2048
2.4286e+06,2046,2044
2.4286e+06,2036,2041
2.4286e+06,2037,2036
2.4286e+06,2031,2043
2.4286e+06,2028,2039
2.4286e+06,2023,2037
2.4286e+06,2014,2028
2.4286e+06,2014,2025
2.4286e+06,2019,2028
2.4286e+06,2010,2030
2.4286e+06,2007,2021
2.4286e+06,2003,2021
2.4286e+06,2005,2015
2.4286e+06,2011,2023
2.4286e+06,1998,2023
2.4286e+06,2006,2024
2.4286e+06,2001,2016
2.4286e+06,2001,2018
2.4286e+06,2004,2018
2.4286e+06,2001,2023
2.4286e+06,2006,2028
2.4286e+06,2007,2016
2.4286e+06,2005,2017
2.4286e+06,2008,2024
2.4286e+06,2008,2025
2.4287e+06,2003,2016
2.4287e+06,2004,2019
2.4287e+06,2003,2021
2.4287e+06,2008,2016
2.4287e+06,2004,2028
2.4287e+06,2002,2022
2.4287e+06,2011,2022
2.4287e+06,2009,2017
2.4287e+06,2007,2017
2.4287e+06,2010,2019
2.4287e+06,2005,2015
2.4287e+06,2010,2014
2.4287e+06,2003,2013
2.4287e+06,2008,2018
2.4287e+06,2010,2021
2.4287e+06,2011,2023
2.4287e+06,2001,2018
2.4287e+06,2006,2017
2.4287e+06,2008,2021
2.4287e+06,2012,2025
2.4287e+06,2012,2024
2.4287e+06,2008,2018
2.4287e+06,2009,2019
2.4287e+06,2003,2016
2.4287e+06,2009,2012
2.4287e+06,2010,2020
2.4288e+06,2007,2019
2.4288e+06,2008,2015
2.4288e+06,2008,2018
2.4288e+06,2011,2023
2.4288e+06,2013,2024
2.4288e+06,2007,2019
2.4288e+06,2003,2017
2.4288e+06,1998,2019
2.4288e+06,2006,2015
2.4288e+06,2009,2021
2.4288e+06,2010,2019
2.4288e+06,2004,2014
2.4288e+06,2007,2018
2.4288e+06,2003,2015
2.4288e+06,2008,2021
2.4288e+06,2006,2017
2.4288e+06,2003,2016
2.4288e+06,2000,2013
2.4288e+06,2007,2022
2.4288e+06,2001,2014
2.4288e+06,2008,2019
2.4288e+06,2003,2013
2.4288e+06,2005,2019
2.4288e+06,2004,2016
2.4288e+06,2007,2017
2.4288e+06,2011,2022
2.4289e+06,2009,2019
2.4289e+06,2004,2014
2.4289e+06,2005,2017
2.4289e+06,2011,2019
2.4289e+06,2007,2023
2.4289e+06,2004,2023
2.4289e+06,2003,2015
2.4289e+06,2006,2021
2.4289e+06,2014,2025
2.4289e+06,2008,2019
2.4289e+06,2005,2024
2.4289e+06,2007,2017
2.4289e+06,2011,2020
2.4289e+06,2013,2028
2.4289e+06,2023,2035
2.4289e+06,2021,2029
2.4289e+06,2018,2030
2.4289e+06,2019,2027
2.4289e+06,2023,2035
2.4289e+06,2027,2030
2.4289e+06,2032,2047
2.4289e+06,2035,2043
2.4289e+06,2031,2035
2.4289e+06,2040,2054
2.4289e+06,2047,2065
2.429e+06,2038,2051
2.429e+06,2034,2056
2.429e+06,2041,2052
2.429e+06,2042,2054
2.429e+06,2036,2048
2.429e+06,2025,2042
2.429e+06,2015,2034
2.429e+06,2013,2026
2.429e+06,2012,2025
2.429e+06,2013,2024
2.429e+06,2005,2024
2.429e+06,2006,2025
2.429e+06,2007,2020
2.429e+06,1997,2025
2.429e+06,2010,2039
2.429e+06,2006,2032
2.429e+06,2002,2030
2.429e+06,2004,2031
2.429e+06,2006,2031
2.429e+06,2010,2029
2.429e+06,2009,2028
2.429e+06,2007,2026
2.429e+06,2003,2021
2.429e+06,2013,2027
2.429e+06,2006,2024
2.429e+06,2014,2028
2.4291e+06,1999,2012
2.4291e+06,1984,1999
2.4291e+06,1974,1987
2.4291e+06,1999,2000
2.4291e+06,2036,2032
2.4291e+06,2087,2062
2.4291e+06,2154,2125
2.4291e+06,2216,2182
2.4291e+06,2259,2250
2.4291e+06,2277,2295
2.4291e+06,2229,2252
2.4291e+06,2163,2205
2.4291e+06,2106,2146
2.4291e+06,2055,2083
2.4291e+06,2020,2039
2.4291e+06,2005,2020
2.4291e+06,2010,2015
2.4291e+06,2014,2021
2.4291e+06,2013,2028
2.4291e+06,2021,2031
2.4291e+06,2015,2029
2.4291e+06,2014,2022
2.4291e+06,2013,2019
2.4291e+06,2022,2025
2.4291e+06,2017,2019
2.4292e+06,2013,2022
2.4292e+06,2006,2014
2.4292e+06,2011,2014
2.4292e+06,2012,2017
2.4292e+06,2026,2023
2.4292e+06,2018,2021
2.4292e+06,2015,2016
2.4292e+06,2016,2015
2.4292e+06,2020,2018
2.4292e+06,2017,2021
2.4292e+06,2018,2019
2.4292e+06,2018,2019
2.4292e+06,2018,2021
2.4292e+06,2014,2015
2.4292e+06,2030,2026
2.4292e+06,2023,2023
2.4292e+06,2024,2016
2.4292e+06,2017,2020
2.4292e+06,2019,2020
2.4292e+06,2028,2019
2.4292e+06,2027,2025
2.4292e+06,2026,2025
2.4292e+06,2029,2019
2.4292e+06,2027,2022
2.4292e+06,2032,2023
2.4292e+06,2031,2033
2.4293e+06,2022,2020
2.4293e+06,2033,2030
2.4293e+06,2032,2024
2.4293e+06,2032,2026
2.4293e+06,2040,2025
2.4293e+06,2041,2028
2.4293e+06,2037,2024
2.4293e+06,2040,2029
2.4293e+06,2042,2038
2.4293e+06,2053,2039
2.4293e+06,2048,2040
2.4293e+06,2050,2034
2.4293e+06,2053,2037
2.4293e+06,2056,2039
2.4293e+06,2062,2045
2.4293e+06,2060,2040
2.4293e+06,2060,2042
2.4293e+06,2063,2040
2.4293e+06,2065,2044
2.4293e+06,2079,2049
2.4293e+06,2077,2044
2.4293e+06,2077,2044
2.4293e+06,2078,2054
2.4293e+06,2078,2050
2.4293e+06,2082,2050
2.4293e+06,2080,2055
2.4294e+06,2083,2055
2.4294e+06,2076,2049
2.4294e+06,2084,2061
2.4294e+06,2080,2055
2.4294e+06,2070,2049
2.4294e+06,2065,2053
2.4294e+06,2058,2040
2.4294e+06,2053,2040
2.4294e+06,2046,2042
2.4294e+06,2044,2042
2.4294e+06,2040,2035
2.4294e+06,2029,2026
2.4294e+06,2027,2033
2.4294e+06,2026,2030
2.4294e+06,2021,2026
2.4294e+06,2022,2033
2.4294e+06,2013,2021
2.4294e+06,2007,2018
2.4294e+06,2014,2024
2.4294e+06,2020,2031
2.4294e+06,2017,2017
2.4294e+06,2009,2020
2.4294e+06,2005,2016
2.4294e+06,2014,2022
2.4294e+06,2015,2028
2.4295e+06,2017,2027
2.4295e+06,2014,2025
2.4295e+06,2012,2026
2.4295e+06,2015,2027
2.4295e+06,2019,2031
2.4295e+06,2016,2024
2.4295e+06,2005,2021
2.4295e+06,2010,2017
2.4295e+06,2021,2033
2.4295e+06,2018,2031
2.4295e+06,2015,2029
2.4295e+06,2011,2022
2.4295e+06,2011,2014
2.4295e+06,2011,2022
2.4295e+06,2017,2027
2.4295e+06,2007,2025
2.4295e+06,2010,2018
2.4295e+06,2012,2017
2.4295e+06,2013,2021
2.4295e+06,2022,2028
2.4295e+06,2016,2031
2.4295e+06,2008,2023
2.4295e+06,2013,2022
2.4295e+06,2013,2020
2.4295e+06,2018,2024
2.4295e+06,2021,2031
2.4296e+06,2011,2021
2.4296e+06,2010,2026
2.4296e+06,2015,2016
2.4296e+06,2016,2017
2.4296e+06,2021,2026
2.4296e+06,2013,2021
2.4296e+06,2012,2015
2.4296e+06,2015,2021
2.4296e+06,2019,2027
2.4296e+06,2016,2016
2.4296e+06,2010,2022
2.4296e+06,2006,2017
2.4296e+06,2011,2023
2.4296e+06,2018,2023
2.4296e+06,2014,2024
2.4296e+06,2015,2022
2.4296e+06,2009,2017
2.4296e+06,2006,2019
2.4296e+06,2009,2021
2.4296e+06,2017,2024
2.4296e+06,2011,2014
2.4296e+06,2008,2023
2.4296e+06,2008,2022
2.4296e+06,2003,2014
2.4296e+06,2014,2023
2.4297e+06,2005,2022
2.4297e+06,2008,2022
2.4297e+06,2005,2016
2.4297e+06,2009,2024
2.4297e+06,2010,2020
2.4297e+06,2009,2018
2.4297e+06,2013,2024
2.4297e+06,2012,2020
2.4297e+06,2019,2029
2.4297e+06,2024,2033
2.4297e+06,2023,2033
2.4297e+06,2021,2028
2.4297e+06,2016,2028
2.4297e+06,2038,2042
2.4297e+06,2037,2038
2.4297e+06,2042,2042
2.4297e+06,2039,2041
2.4297e+06,2033,2039
2.4297e+06,2036,2038
2.4297e+06,2041,2050
2.4297e+06,2047,2049
2.4297e+06,2037,2041
2.4297e+06,2034,2037
2.4297e+06,2031,2040
2.4297e+06,2021,2029
2.4297e+06,2011,2026
2.4298e+06,2012,2023
2.4298e+06,2007,2016
2.4298e+06,2007,2017
2.4298e+06,2001,2018
2.4298e+06,2010,2023
2.4298e+06,2006,2018
2.4298e+06,2002,2015
2.4298e+06,2004,2013
2.4298e+06,1999,2014
2.4298e+06,2008,2025
2.4298e+06,2005,2016
2.4298e+06,2005,2013
2.4298e+06,2002,2015
2.4298e+06,2004,2017
2.4298e+06,2004,2020
2.4298e+06,2009,2022
2.4298e+06,2002,2014
2.4298e+06,2007,2007
2.4298e+06,1998,2011
2.4298e+06,1983,1995
2.4298e+06,1978,1989
2.4298e+06,1986,1985
2.4298e+06,2017,2011
2.4298e+06,2062,2041
2.4298e+06,2141,2109
2.4298e+06,2206,2165
2.4299e+06,2252,2226
2.4299e+06,2277,2263
2.4299e+06,2229,2234
2.4299e+06,2179,2206
2.4299e+06,2119,2159
2.4299e+06,2065,2096
2.4299e+06,2022,2042
2.4299e+06,1991,2011
2.4299e+06,2000,2006
2.4299e+06,1999,2005
2.4299e+06,2000,2007
2.4299e+06,2005,2008
2.4299e+06,2002,2013
2.4299e+06,2013,2006
2.4299e+06,2010,2014
2.4299e+06,2011,2013
2.4299e+06,2007,2018
2.4299e+06,2009,2005
2.4299e+06,2011,2008
2.4299e+06,2008,2008
2.4299e+06,2001,2009
2.4299e+06,2003,2003
2.4299e+06,2006,2006
2.4299e+06,2009,2008
2.4299e+06,2013,2013
2.43e+06,2012,2009
2.43e+06,2011,2006
2.43e+06,2011,2002
2.43e+06,2015,2017
2.43e+06,2013,2008
2.43e+06,2008,2006
2.43e+06,2004,2005
2.43e+06,2015,2013
2.43e+06,2016,2006
2.43e+06,2027,2020
2.43e+06,2020,2015
2.43e+06,2013,2009
2.43e+06,2015,2010
2.43e+06,2028,2015
2.43e+06,2023,2015
2.43e+06,2022,2017
2.43e+06,2018,2013
2.43e+06,2026,2013
2.43e+06,2023,2015
2.43e+06,2030,2021
2.43e+06,2031,2023
2.43e+06,2027,2012
2.43e+06,2032,2021
2.43e+06,2032,2024
2.43e+06,2034,2022
2.43e+06,2039,2024
2.4301e+06,2043,2020
2.4301e+06,2038,2022
2.4301e+06,2043,2025
2.4301e+06,2044,2026
2.4301e+06,2052,2031
2.4301e+06,2051,2027
2.4301e+06,2042,2026
2.4301e+06,2061,2034
2.4301e+06,2055,2033
2.4301e+06,2067,2032
2.4301e+06,2065,2035
2.4301e+06,2064,2031
2.4301e+06,2067,2038
2.4301e+06,2071,2038
2.4301e+06,2077,2039
2.4301e+06,2080,2045
2.4301e+06,2073,2034
2.4301e+06,2074,2040
2.4301e+06,2075,2043
2.4301e+06,2074,2042
2.4301e+06,2078,2047
2.4301e+06,2073,2040
2.4301e+06,2067,2036
2.4301e+06,2063,2038
2.4301e+06,2059,2041
2.4302e+06,2049,2038
2.4302e+06,2041,2024
2.4302e+06,2029,2020
2.4302e+06,2036,2026
2.4302e+06,2031,2026
2.4302e+06,2022,2021
2.4302e+06,2024,2020
2.4302e+06,2015,2015
2.4302e+06,2019,2021
2.4302e+06,2016,2021
2.4302e+06,2011,2017
2.4302e+06,2013,2019
2.4302e+06,2009,2022
2.4302e+06,2004,2015
2.4302e+06,2022,2017
2.4302e+06,2015,2019
2.4302e+06,2008,2020
2.4302e+06,2006,2007
2.4302e+06,2007,2014
2.4302e+06,2012,2022
2.4302e+06,2010,2015
2.4302e+06,2010,2017
2.4302e+06,2010,2019
2.4302e+06,2017,2019
2.4302e+06,2014,2018
2.4302e+06,2008,2017
2.4303e+06,2012,2021
2.4303e+06,2010,2014
2.4303e+06,2013,2016
2.4303e+06,2013,2017
2.4303e+06,2019,2014
2.4303e+06,2012,2016
2.4303e+06,2011,2014
2.4303e+06,2009,2012
2.4303e+06,2014,2018
2.4303e+06,2017,2019
2.4303e+06,2015,2019
2.4303e+06,2014,2014
2.4303e+06,2016,2014
2.4303e+06,2011,2019
2.4303e+06,2019,2022
2.4303e+06,2015,2018
2.4303e+06,2007,2015
2.4303e+06,2017,2018
2.4303e+06,2014,2020
2.4303e+06,2014,2020
2.4303e+06,2017,2019
2.4303e+06,2013,2016
2.4303e+06,2004,2016
2.4303e+06,2007,2013
2.4303e+06,2023,2015
2.4303e+06,2015,2021
2.4304e+06,2008,2016
2.4304e+06,2016,2015
2.4304e+06,2016,2021
2.4304e+06,2015,2014
2.4304e+06,2013,2014
2.4304e+06,2009,2017
2.4304e+06,2007,2010
2.4304e+06,2015,2018
2.4304e+06,2015,2016
2.4304e+06,2015,2017
2.4304e+06,2012,2014
2.4304e+06,2010,2013
2.4304e+06,2015,2016
2.4304e+06,2015,2027
2.4304e+06,2022,2030
2.4304e+06,2020,2025
2.4304e+06,2020,2024
2.4304e+06,2025,2027
2.4304e+06,2031,2031
2.4304e+06,2031,2038
2.4304e+06,2044,2039
2.4304e+06,2037,2038
2.4304e+06,2041,2035
2.4304e+06,2043,2039
2.4304e+06,2044,2045
2.4305e+06,2047,2044
2.4305e+06,2041,2041
2.4305e+06,2041,2044
2.4305e+06,2036,2031
2.4305e+06,2027,2038
2.4305e+06,2019,2033
2.4305e+06,2014,2019
2.4305e+06,2012,2022
2.4305e+06,2007,2014
2.4305e+06,2011,2020
2.4305e+06,2003,2016
2.4305e+06,2002,2012
2.4305e+06,2003,2017
2.4305e+06,2001,2012
2.4305e+06,2008,2013
2.4305e+06,2004,2012
2.4305e+06,2002,2010
2.4305e+06,2002,2009
2.4305e+06,2001,2011
2.4305e+06,2007,2014
2.4305e+06,2004,2012
2.4305e+06,1998,2010
2.4305e+06,2003,2004
2.4305e+06,2003,2009
2.4305e+06,2004,2014
2.4305e+06,1999,1999
2.4306e+06,1984,1991
2.4306e+06,1968,1983
2.4306e+06,1985,1983
2.4306e+06,2025,2018
2.4306e+06,2082,2049
2.4306e+06,2146,2106
2.4306e+06,2204,2156
2.4306e+06,2250,2223
2.4306e+06,2269,2262
2.4306e+06,2225,2222
2.4306e+06,2164,2191
2.4306e+06,2099,2135
2.4306e+06,2050,2071
2.4306e+06,2017,2033
2.4306e+06,2002,2012
2.4306e+06,2006,2008
2.4306e+06,1997,2008
2.4306e+06,2004,2011
2.4306e+06,2009,2010
2.4306e+06,2013,2016
2.4306e+06,2011,2018
2.4306e+06,2009,2009
2.4306e+06,2015,2007
2.4306e+06,2009,2014
2.4306e+06,2014,2012
2.4307e+06,2009,2011
2.4307e+06,2002,2007
2.4307e+06,2005,2002
2.4307e+06,2009,2013
2.4307e+06,2013,2014
2.4307e+06,2015,2004
2.4307e+06,2008,2007
2.4307e+06,2010,2006
2.4307e+06,2011,2011
2.4307e+06,2012,2016
2.4307e+06,2013,2007
2.4307e+06,2011,2010
2.4307e+06,2012,2012
2.4307e+06,2015,2009
2.4307e+06,2018,2013
2.4307e+06,2015,2009
2.4307e+06,2011,2012
2.4307e+06,2012,2010
2.4307e+06,2014,2010
2.4307e+06,2021,2021
2.4307e+06,2024,2016
2.4307e+06,2021,2021
2.4307e+06,2020,2014
2.4307e+06,2018,2009
2.4307e+06,2015,2017
2.4307e+06,2028,2018
2.4308e+06,2025,2014
2.4308e+06,2025,2021
2.4308e+06,2024,2018
2.4308e+06,2030,2019
2.4308e+06,2033,2017
2.4308e+06,2035,2022
2.4308e+06,2036,2024
2.4308e+06,2038,2028
2.4308e+06,2046,2027
2.4308e+06,2046,2032
2.4308e+06,2051,2036
2.4308e+06,2043,2027
2.4308e+06,2053,2034
2.4308e+06,2053,2032
2.4308e+06,2058,2038
2.4308e+06,2059,2037
2.4308e+06,2057,2033
2.4308e+06,2061,2032
2.4308e+06,2065,2038
2.4308e+06,2071,2042
2.4308e+06,2077,2043
2.4308e+06,2072,2042
2.4308e+06,2071,2043
2.4308e+06,2073,2047
2.4308e+06,2084,2049
2.4308e+06,2072,2050
2.4309e+06,2076,2046
2.4309e+06,2067,2041
2.4309e+06,2066,2040
2.4309e+06,2070,2047
2.4309e+06,2054,2043
2.4309e+06,2047,2032
2.4309e+06,2039,2025
2.4309e+06,2041,2031
2.4309e+06,2040,2038
2.4309e+06,2021,2029
2.4309e+06,2030,2027
2.4309e+06,2021,2023
2.4309e+06,2017,2024
2.4309e+06,2018,2026
2.4309e+06,2016,2027
2.4309e+06,2013,2023
2.4309e+06,2012,2016
2.4309e+06,2004,2015
2.4309e+06,2016,2022
2.4309e+06,2004,2016
2.4309e+06,2009,2019
2.4309e+06,2007,2014
2.4309e+06,2007,2016
2.4309e+06,2009,2021
2.4309e+06,2011,2022
2.431e+06,2003,2020
2.431e+06,2005,2016
2.431e+06,2007,2016
2.431e+06,2013,2020
2.431e+06,2008,2023
2.431e+06,2007,2025
2.431e+06,2006,2017
2.431e+06,2008,2019
2.431e+06,2011,2026
2.431e+06,2013,2023
2.431e+06,2006,2025
2.431e+06,2009,2017
2.431e+06,2005,2018
2.431e+06,2005,2012
2.431e+06,2011,2018
2.431e+06,2014,2022
2.431e+06,2012,2018
2.431e+06,2004,2015
2.431e+06,2011,2020
2.431e+06,2006,2027
2.431e+06,2013,2020
2.431e+06,2002,2018
2.431e+06,2016,2018
2.431e+06,2001,2016
2.431e+06,2017,2017
2.431e+06,2009,2025
2.4311e+06,2006,2019
2.4311e+06,2018,2017
2.4311e+06,2006,2017
2.4311e+06,2014,2019
2.4311e+06,2014,2025
2.4311e+06,2007,2017
2.4311e+06,2010,2020
2.4311e+06,2011,2020
2.4311e+06,2015,2020
2.4311e+06,2015,2024
2.4311e+06,1999,2017
2.4311e+06,2007,2017
2.4311e+06,2009,2017
2.4311e+06,2012,2022
2.4311e+06,2009,2022
2.4311e+06,2014,2020
2.4311e+06,2007,2019
2.4311e+06,2007,2019
2.4311e+06,2010,2019
2.4311e+06,2003,2024
2.4311e+06,2007,2019
2.4311e+06,2005,2015
2.4311e+06,2011,2022
2.4311e+06,2015,2022
2.4311e+06,2022,2031
2.4312e+06,2024,2038
2.4312e+06,2021,2024
2.4312e+06,2017,2031
2.4312e+06,2027,2032
2.4312e+06,2031,2035
2.4312e+06,2036,2041
2.4312e+06,2042,2049
2.4312e+06,2040,2045
2.4312e+06,2044,2046
2.4312e+06,2041,2055
2.4312e+06,2045,2047
2.4312e+06,2043,2048
2.4312e+06,2043,2047
2.4312e+06,2037,2046
2.4312e+06,2038,2048
2.4312e+06,2040,2052
2.4312e+06,2026,2037
2.4312e+06,2013,2019
2.4312e+06,2009,2027
2.4312e+06,2010,2028
2.4312e+06,2010,2027
2.4312e+06,1999,2018
2.4312e+06,2003,2014
2.4312e+06,2012,2024
2.4312e+06,2006,2027
2.4312e+06,1995,2020
2.4313e+06,2009,2021
2.4313e+06,2004,2014
2.4313e+06,2003,2019
2.4313e+06,2006,2023
2.4313e+06,2013,2023
2.4313e+06,2003,2016
2.4313e+06,2005,2013
2.4313e+06,2002,2018
2.4313e+06,2005,2021
2.4313e+06,2009,2022
2.4313e+06,2002,2011
2.4313e+06,1978,1999
2.4313e+06,1981,1990
2.4313e+06,1990,1991
2.4313e+06,2018,2010
2.4313e+06,2049,2034
2.4313e+06,2122,2091
2.4313e+06,2192,2147
2.4313e+06,2242,2207
2.4313e+06,2275,2275
2.4313e+06,2255,2257
2.4313e+06,2198,2212
2.4313e+06,2132,2163
2.4313e+06,2070,2096
2.4313e+06,2015,2045
2.4313e+06,2007,2015
2.4314e+06,2003,2010
2.4314e+06,2002,2007
2.4314e+06,2010,2013
2.4314e+06,2018,2018
2.4314e+06,2016,2022
2.4314e+06,2014,2018
2.4314e+06,2000,2011
2.4314e+06,2013,2017
2.4314e+06,2010,2020
2.4314e+06,2011,2017
2.4314e+06,2013,2020
2.4314e+06,2007,2010
2.4314e+06,2012,2014
2.4314e+06,2006,2019
2.4314e+06,2008,2015
2.4314e+06,2010,2016
2.4314e+06,2013,2016
2.4314e+06,2002,2010
2.4314e+06,2010,2017
2.4314e+06,2024,2023
2.4314e+06,2011,2015
2.4314e+06,2008,2020
2.4314e+06,2011,2008
2.4314e+06,2019,2019
2.4314e+06,2020,2021
2.4315e+06,2016,2017
2.4315e+06,2014,2014
2.4315e+06,2017,2018
2.4315e+06,2022,2023
2.4315e+06,2023,2021
2.4315e+06,2018,2019
2.4315e+06,2017,2017
2.4315e+06,2023,2018
2.4315e+06,2029,2026
2.4315e+06,2026,2026
2.4315e+06,2029,2022
2.4315e+06,2029,2029
2.4315e+06,2028,2023
2.4315e+06,2032,2024
2.4315e+06,2039,2028
2.4315e+06,2038,2031
2.4315e+06,2040,2033
2.4315e+06,2038,2032
2.4315e+06,2041,2033
2.4315e+06,2033,2033
2.4315e+06,2053,2038
2.4315e+06,2046,2035
2.4315e+06,2048,2037
2.4315e+06,2059,2046
2.4315e+06,2058,2042
2.4315e+06,2063,2045
2.4316e+06,2053,2042
2.4316e+06,2066,2045
2.4316e+06,2064,2040
2.4316e+06,2074,2049
2.4316e+06,2076,2053
2.4316e+06,2079,2052
2.4316e+06,2071,2043
2.4316e+06,2079,2053
2.4316e+06,2076,2052
2.4316e+06,2087,2058
2.4316e+06,2078,2053
2.4316e+06,2075,2048
2.4316e+06,2077,2051
2.4316e+06,2076,2058
2.4316e+06,2072,2056
2.4316e+06,2065,2053
2.4316e+06,2053,2039
2.4316e+06,2056,2043
2.4316e+06,2048,2046
2.4316e+06,2043,2033
2.4316e+06,2040,2040
2.4316e+06,2032,2028
2.4316e+06,2024,2029
2.4316e+06,2023,2030
2.4316e+06,2027,2033
2.4317e+06,2022,2030
2.4317e+06,2006,2023
2.4317e+06,2015,2026
2.4317e+06,2017,2025
2.4317e+06,2016,2024
2.4317e+06,2020,2030
2.4317e+06,2019,2030
2.4317e+06,2013,2023
2.4317e+06,2020,2034
2.4317e+06,2017,2030
2.4317e+06,2014,2026
2.4317e+06,2016,2023
2.4317e+06,2010,2027
2.4317e+06,2016,2021
2.4317e+06,2017,2027
2.4317e+06,2021,2033
2.4317e+06,2016,2027
2.4317e+06,2011,2029
2.4317e+06,2014,2025
2.4317e+06,2021,2034
2.4317e+06,2018,2031
2.4317e+06,2021,2025
2.4317e+06,2017,2024
2.4317e+06,2018,2030
2.4317e+06,2022,2032
2.4317e+06,2020,2029
2.4318e+06,2016,2024
2.4318e+06,2018,2021
2.4318e+06,2019,2027
2.4318e+06,2018,2029
2.4318e+06,2022,2030
2.4318e+06,2018,2029
2.4318e+06,2019,2028
2.4318e+06,2015,2025
2.4318e+06,2020,2030
2.4318e+06,2011,2033
2.4318e+06,2022,2028
2.4318e+06,2015,2022
2.4318e+06,2019,2029
2.4318e+06,2021,2023
2.4318e+06,2026,2033
2.4318e+06,2018,2028
2.4318e+06,2012,2027
2.4318e+06,2016,2025
2.4318e+06,2023,2031
2.4318e+06,2023,2033
2.4318e+06,2018,2030
2.4318e+06,2010,2024
2.4318e+06,2009,2021
2.4318e+06,2021,2025
2.4318e+06,2014,2020
2.4318e+06,2015,2027
2.4319e+06,2017,2023
2.4319e+06,2011,2022
2.4319e+06,2017,2025
2.4319e+06,2020,2032
2.4319e+06,2017,2026
2.4319e+06,2006,2019
2.4319e+06,2013,2019
2.4319e+06,2010,2024
2.4319e+06,2012,2023
2.4319e+06,2018,2027
2.4319e+06,2009,2022
2.4319e+06,2011,2018
2.4319e+06,2005,2021
2.4319e+06,2007,2025
2.4319e+06,2015,2022
2.4319e+06,2010,2024
2.4319e+06,2017,2023
2.4319e+06,2021,2029
2.4319e+06,2024,2027
2.4319e+06,2030,2037
2.4319e+06,2024,2038
2.4319e+06,2023,2031
2.4319e+06,2024,2033
2.4319e+06,2029,2038
2.4319e+06,2044,2056
2.432e+06,2046,2046
2.432e+06,2043,2047
2.432e+06,2046,2044
2.432e+06,2047,2042
2.432e+06,2044,2047
2.432e+06,2050,2048
2.432e+06,2046,2041
2.432e+06,2039,2047
2.432e+06,2036,2045
2.432e+06,2032,2042
2.432e+06,2028,2035
2.432e+06,2015,2026
2.432e+06,2007,2015
2.432e+06,2009,2019
2.432e+06,2017,2021
2.432e+06,2001,2017
2.432e+06,2007,2019
2.432e+06,2006,2014
2.432e+06,2003,2015
2.432e+06,2013,2021
2.432e+06,2004,2014
2.432e+06,2006,2015
2.432e+06,2004,2013
2.432e+06,2005,2021
2.432e+06,2003,2015
2.432e+06,2007,2016
2.4321e+06,2004,2014
2.4321e+06,2002,2016
2.4321e+06,2010,2013
2.4321e+06,2003,2014
2.4321e+06,1999,2008
2.4321e+06,1982,1999
2.4321e+06,1974,1980
2.4321e+06,1987,1982
2.4321e+06,2024,2009
2.4321e+06,2075,2042
2.4321e+06,2135,2095
2.4321e+06,2195,2157
2.4321e+06,2247,2218
2.4321e+06,2280,2280
2.4321e+06,2250,2258
2.4321e+06,2190,2206
2.4321e+06,2122,2150
2.4321e+06,2059,2079
2.4321e+06,2018,2033
2.4321e+06,2005,2020
2.4321e+06,2011,2008
2.4321e+06,2008,2013
2.4321e+06,2004,2018
2.4321e+06,2016,2020
2.4321e+06,2018,2023
2.4322e+06,2017,2023
2.4322e+06,2003,2010
2.4322e+06,2008,2015
2.4322e+06,2011,2015
2.4322e+06,2014,2020
2.4322e+06,2010,2018
2.4322e+06,2009,2013
2.4322e+06,2014,2019
2.4322e+06,2014,2018
2.4322e+06,2012,2023
2.4322e+06,2018,2021
2.4322e+06,2009,2006
2.4322e+06,2010,2012
2.4322e+06,2013,2014
2.4322e+06,2021,2028
2.4322e+06,2023,2024
2.4322e+06,2017,2021
2.4322e+06,2004,2020
2.4322e+06,2020,2021
2.4322e+06,2027,2031
2.4322e+06,2020,2020
2.4322e+06,2018,2023
2.4322e+06,2021,2019
2.4322e+06,2023,2023
2.4322e+06,2024,2025
2.4322e+06,2019,2018
2.4323e+06,2023,2025
2.4323e+06,2023,2021
2.4323e+06,2031,2027
2.4323e+06,2032,2029
2.4323e+06,2036,2036
2.4323e+06,2033,2032
2.4323e+06,2034,2032
2.4323e+06,2027,2026
2.4323e+06,2045,2037
2.4323e+06,2045,2040
2.4323e+06,2042,2036
2.4323e+06,2034,2036
2.4323e+06,2041,2033
2.4323e+06,2051,2045
2.4323e+06,2057,2048
2.4323e+06,2053,2042
2.4323e+06,2055,2042
2.4323e+06,2053,2040
2.4323e+06,2065,2053
2.4323e+06,2064,2053
2.4323e+06,2070,2050
2.4323e+06,2072,2049
2.4323e+06,2076,2053
2.4323e+06,2077,2052
2.4323e+06,2076,2054
2.4323e+06,2081,2057
2.4324e+06,2087,2061
2.4324e+06,2078,2057
2.4324e+06,2085,2060
2.4324e+06,2087,2062
2.4324e+06,2091,2069
2.4324e+06,2085,2058
2.4324e+06,2075,2055
2.4324e+06,2085,2064
2.4324e+06,2077,2060
2.4324e+06,2074,2058
2.4324e+06,2057,2050
2.4324e+06,2047,2044
2.4324e+06,2054,2048
2.4324e+06,2048,2047
2.4324e+06,2039,2040
2.4324e+06,2038,2037
2.4324e+06,2021,2030
2.4324e+06,2030,2038
2.4324e+06,2028,2034
2.4324e+06,2023,2036
2.4324e+06,2018,2029
2.4324e+06,2017,2027
2.4324e+06,2019,2027
2.4324e+06,2021,2030
2.4324e+06,2014,2033
2.4325e+06,2019,2031
2.4325e+06,2014,2029
2.4325e+06,2020,2028
2.4325e+06,2018,2032
2.4325e+06,2022,2031
2.4325e+06,2018,2029
2.4325e+06,2011,2025
2.4325e+06,2019,2024
2.4325e+06,2020,2023
2.4325e+06,2023,2034
2.4325e+06,2018,2030
2.4325e+06,2021,2032
2.4325e+06,2019,2030
2.4325e+06,2020,2030
2.4325e+06,2022,2031
2.4325e+06,2024,2038
2.4325e+06,2022,2025
2.4325e+06,2015,2030
2.4325e+06,2026,2035
2.4325e+06,2023,2032
2.4325e+06,2021,2031
2.4325e+06,2020,2031
2.4325e+06,2019,2029
2.4325e+06,2021,2029
2.4325e+06,2023,2027
2.4325e+06,2025,2034
2.4326e+06,2021,2029
2.4326e+06,2027,2034
2.4326e+06,2021,2030
2.4326e+06,2022,2033
2.4326e+06,2026,2035
2.4326e+06,2023,2031
2.4326e+06,2019,2032
2.4326e+06,2018,2028
2.4326e+06,2029,2031
2.4326e+06,2027,2036
2.4326e+06,2016,2032
2.4326e+06,2018,2029
2.4326e+06,2020,2030
2.4326e+06,2018,2031
2.4326e+06,2028,2035
2.4326e+06,2025,2029
2.4326e+06,2020,2027
2.4326e+06,2021,2031
2.4326e+06,2014,2031
2.4326e+06,2023,2031
2.4326e+06,2024,2033
2.4326e+06,2021,2030
2.4326e+06,2021,2029
2.4326e+06,2023,2031
2.4326e+06,2022,2032
2.4327e+06,2014,2027
2.4327e+06,2022,2025
2.4327e+06,2015,2028
2.4327e+06,2027,2035
2.4327e+06,2027,2035
2.4327e+06,2027,2033
2.4327e+06,2021,2028
2.4327e+06,2021,2028
2.4327e+06,2019,2033
2.4327e+06,2021,2033
2.4327e+06,2023,2033
2.4327e+06,2010,2027
2.4327e+06,2021,2027
2.4327e+06,2022,2021
2.4327e+06,2022,2032
2.4327e+06,2019,2032
2.4327e+06,2022,2034
2.4327e+06,2012,2026
2.4327e+06,2018,2031
2.4327e+06,2027,2034
2.4327e+06,2023,2033
2.4327e+06,2024,2031
2.4327e+06,2025,2037
2.4327e+06,2028,2037
2.4327e+06,2037,2051
2.4327e+06,2028,2042
2.4328e+06,2033,2039
2.4328e+06,2035,2043
2.4328e+06,2032,2045
2.4328e+06,2045,2043
2.4328e+06,2055,2061
2.4328e+06,2057,2054
2.4328e+06,2050,2054
2.4328e+06,2051,2051
2.4328e+06,2052,2054
2.4328e+06,2058,2063
2.4328e+06,2062,2061
2.4328e+06,2055,2056
2.4328e+06,2050,2055
2.4328e+06,2050,2060
2.4328e+06,2045,2054
2.4328e+06,2034,2042
2.4328e+06,2025,2034
2.4328e+06,2022,2026
2.4328e+06,2026,2044
2.4328e+06,2023,2032
2.4328e+06,2024,2027
2.4328e+06,2020,2033
2.4328e+06,2012,2028
2.4328e+06,2019,2028
2.4328e+06,2019,2037
2.4328e+06,2017,2030
2.4329e+06,2025,2030
2.4329e+06,2023,2032
2.4329e+06,2019,2030
2.4329e+06,2024,2031
2.4329e+06,2027,2035
2.4329e+06,2018,2027
2.4329e+06,2007,2023
2.4329e+06,2017,2032
2.4329e+06,2023,2029
2.4329e+06,2012,2015
2.4329e+06,1995,2006
2.4329e+06,2000,2003
2.4329e+06,2010,2002
2.4329e+06,2036,2023
2.4329e+06,2094,2061
2.4329e+06,2156,2115
2.4329e+06,2222,2176
2.4329e+06,2261,2234
2.4329e+06,2295,2298
2.4329e+06,2261,2266
2.4329e+06,2194,2221
2.4329e+06,2129,2159
2.4329e+06,2067,2089
2.4329e+06,2032,2048
2.4329e+06,2031,2034
2.433e+06,2029,2032
2.433e+06,2028,2031
2.433e+06,2031,2034
2.433e+06,2035,2040
2.433e+06,2035,2035
2.433e+06,2029,2035
2.433e+06,2032,2031
2.433e+06,2031,2030
2.433e+06,2025,2034
2.433e+06,2030,2030
2.433e+06,2027,2033
2.433e+06,2030,2030
2.433e+06,2024,2026
2.433e+06,2029,2030
2.433e+06,2022,2032
2.433e+06,2036,2037
2.433e+06,2028,2027
2.433e+06,2029,2029
2.433e+06,2035,2037
2.433e+06,2037,2038
2.433e+06,2036,2037
2.433e+06,2032,2029
2.433e+06,2032,2033
2.433e+06,2029,2033
2.433e+06,2042,2035
2.433e+06,2038,2036
2.4331e+06,2040,2037
2.4331e+06,2039,2036
2.4331e+06,2028,2029
2.4331e+06,2043,2040
2.4331e+06,2042,2043
2.4331e+06,2039,2039
2.4331e+06,2038,2032
2.4331e+06,2045,2043
2.4331e+06,2050,2044
2.4331e+06,2054,2049
2.4331e+06,2047,2043
2.4331e+06,2040,2040
2.4331e+06,2052,2044
2.4331e+06,2050,2045
2.4331e+06,2058,2050
2.4331e+06,2054,2049
2.4331e+06,2060,2046
2.4331e+06,2051,2044
2.4331e+06,2064,2052
2.4331e+06,2060,2050
2.4331e+06,2066,2052
2.4331e+06,2070,2055
2.4331e+06,2070,2049
2.4331e+06,2077,2056
2.4331e+06,2073,2060
2.4332e+06,2087,2061
2.4332e+06,2082,2059
2.4332e+06,2085,2056
2.4332e+06,2095,2066
2.4332e+06,2092,2067
2.4332e+06,2098,2073
2.4332e+06,2095,2068
2.4332e+06,2093,2066
2.4332e+06,2099,2072
2.4332e+06,2101,2073
2.4332e+06,2102,2074
2.4332e+06,2105,2072
2.4332e+06,2096,2072
2.4332e+06,2094,2068
2.4332e+06,2086,2072
2.4332e+06,2085,2069
2.4332e+06,2077,2063
2.4332e+06,2072,2064
2.4332e+06,2062,2059
2.4332e+06,2061,2058
2.4332e+06,2054,2052
2.4332e+06,2048,2050
2.4332e+06,2047,2045
2.4332e+06,2041,2045
2.4332e+06,2037,2044
2.4332e+06,2041,2046
2.4333e+06,2032,2032
2.4333e+06,2030,2040
2.4333e+06,2033,2043
2.4333e+06,2033,2044
2.4333e+06,2034,2046
2.4333e+06,2036,2039
2.4333e+06,2030,2039
2.4333e+06,2033,2042
2.4333e+06,2026,2037
2.4333e+06,2033,2041
2.4333e+06,2034,2041
2.4333e+06,2034,2044
2.4333e+06,2031,2039
2.4333e+06,2035,2041
2.4333e+06,2032,2044
2.4333e+06,2034,2042
2.4333e+06,2024,2038
2.4333e+06,2034,2045
2.4333e+06,2029,2041
2.4333e+06,2038,2047
2.4333e+06,2033,2049
2.4333e+06,2030,2037
2.4333e+06,2027,2041
2.4333e+06,2037,2044
2.4333e+06,2036,2043
2.4333e+06,2026,2045
2.4334e+06,2039,2046
2.4334e+06,2034,2043
2.4334e+06,2036,2046
2.4334e+06,2038,2047
2.4334e+06,2026,2045
2.4334e+06,2036,2045
2.4334e+06,2036,2044
2.4334e+06,2039,2048
2.4334e+06,2038,2048
2.4334e+06,2044,2051
2.4334e+06,2036,2048
2.4334e+06,2032,2041
2.4334e+06,2038,2044
2.4334e+06,2038,2048
2.4334e+06,2034,2044
2.4334e+06,2033,2041
2.4334e+06,2034,2039
2.4334e+06,2040,2047
2.4334e+06,2036,2047
2.4334e+06,2038,2047
2.4334e+06,2034,2042
2.4334e+06,2027,2039
2.4334e+06,2031,2039
2.4334e+06,2033,2041
2.4334e+06,2035,2045
2.4335e+06,2031,2043
2.4335e+06,2031,2038
2.4335e+06,2035,2048
2.4335e+06,2034,2044
2.4335e+06,2035,2048
2.4335e+06,2035,2043
2.4335e+06,2024,2043
2.4335e+06,2031,2044
2.4335e+06,2037,2043
2.4335e+06,2033,2047
2.4335e+06,2030,2041
2.4335e+06,2030,2041
2.4335e+06,2031,2041
2.4335e+06,2027,2047
2.4335e+06,2034,2044
2.4335e+06,2033,2047
2.4335e+06,2035,2034
2.4335e+06,2030,2040
2.4335e+06,2034,2046
2.4335e+06,2039,2052
2.4335e+06,2033,2046
2.4335e+06,2031,2040
2.4335e+06,2029,2037
2.4335e+06,2034,2045
2.4335e+06,2032,2041
2.4335e+06,2033,2047
2.4336e+06,2033,2044
2.4336e+06,2032,2040
2.4336e+06,2031,2043
2.4336e+06,2031,2049
2.4336e+06,2033,2048
2.4336e+06,2034,2033
2.4336e+06,2031,2036
2.4336e+06,2040,2049
2.4336e+06,2043,2052
2.4336e+06,2046,2056
2.4336e+06,2043,2051
2.4336e+06,2033,2048
2.4336e+06,2042,2049
2.4336e+06,2048,2056
2.4336e+06,2062,2068
2.4336e+06,2063,2067
2.4336e+06,2063,2062
2.4336e+06,2067,2072
2.4336e+06,2066,2071
2.4336e+06,2066,2069
2.4336e+06,2066,2072
2.4336e+06,2067,2066
2.4336e+06,2065,2067
2.4336e+06,2059,2066
2.4336e+06,2053,2065
2.4337e+06,2044,2053
2.4337e+06,2027,2042
2.4337e+06,2030,2042
2.4337e+06,2038,2044
2.4337e+06,2041,2051
2.4337e+06,2033,2046
2.4337e+06,2030,2038
2.4337e+06,2027,2034
2.4337e+06,2026,2033
2.4337e+06,2026,2039
2.4337e+06,2036,2052
2.4337e+06,2037,2044
2.4337e+06,2032,2043
2.4337e+06,2033,2034
2.4337e+06,2039,2050
2.4337e+06,2033,2043
2.4337e+06,2030,2041
2.4337e+06,2025,2039
2.4337e+06,2030,2040
2.4337e+06,2035,2047
2.4337e+06,2031,2041
2.4337e+06,2017,2026
2.4337e+06,1998,2009
2.4337e+06,2017,2015
2.4337e+06,2049,2041
2.4337e+06,2093,2063
2.4338e+06,2161,2122
2.4338e+06,2223,2180
2.4338e+06,2270,2238
2.4338e+06,2306,2306
2.4338e+06,2272,2277
2.4338e+06,2211,2238
2.4338e+06,2154,2191
2.4338e+06,2097,2120
2.4338e+06,2048,2070
2.4338e+06,2034,2046
2.4338e+06,2035,2042
2.4338e+06,2026,2036
2.4338e+06,2035,2042
2.4338e+06,2045,2052
2.4338e+06,2047,2053
2.4338e+06,2044,2045
2.4338e+06,2036,2045
2.4338e+06,2038,2047
2.4338e+06,2042,2049
2.4338e+06,2042,2049
2.4338e+06,2036,2049
2.4338e+06,2040,2041
2.4338e+06,2036,2042
2.4338e+06,2045,2045
2.4338e+06,2045,2051
2.4338e+06,2037,2047
2.4339e+06,2042,2045
2.4339e+06,2040,2044
2.4339e+06,2051,2049
2.4339e+06,2050,2051
2.4339e+06,2050,2051
2.4339e+06,2043,2048
2.4339e+06,2041,2041
2.4339e+06,2041,2051
2.4339e+06,2059,2060
2.4339e+06,2049,2053
2.4339e+06,2053,2048
2.4339e+06,2052,2049
2.4339e+06,2046,2049
2.4339e+06,2056,2052
2.4339e+06,2055,2053
2.4339e+06,2050,2055
2.4339e+06,2057,2053
2.4339e+06,2055,2049
2.4339e+06,2063,2057
2.4339e+06,2067,2056
2.4339e+06,2058,2056
2.4339e+06,2067,2057
2.4339e+06,2065,2061
2.4339e+06,2071,2063
2.4339e+06,2071,2063
2.434e+06,2076,2068
2.434e+06,2070,2058
2.434e+06,2080,2061
2.434e+06,2082,2069
2.434e+06,2090,2066
2.434e+06,2081,2065
2.434e+06,2086,2070
2.434e+06,2086,2067
2.434e+06,2097,2076
2.434e+06,2096,2074
2.434e+06,2104,2074
2.434e+06,2099,2077
2.434e+06,2104,2072
2.434e+06,2106,2074
2.434e+06,2110,2083
2.434e+06,2112,2079
2.434e+06,2114,2083
2.434e+06,2113,2082
2.434e+06,2119,2084
2.434e+06,2127,2089
2.434e+06,2117,2090
2.434e+06,2117,2091
2.434e+06,2108,2081
2.434e+06,2115,2082
2.434e+06,2113,2090
2.434e+06,2105,2084
2.4341e+06,2100,2077
2.4341e+06,2083,2075
2.4341e+06,2090,2072
2.4341e+06,2084,2078
2.4341e+06,2075,2065
2.4341e+06,2071,2068
2.4341e+06,2067,2063
2.4341e+06,2063,2062
2.4341e+06,2065,2065
2.4341e+06,2063,2065
2.4341e+06,2052,2057
2.4341e+06,2054,2055
2.4341e+06,2053,2059
2.4341e+06,2051,2058
2.4341e+06,2054,2061
2.4341e+06,2053,2055
2.4341e+06,2047,2049
2.4341e+06,2046,2049
2.4341e+06,2049,2058
2.4341e+06,2055,2068
2.4341e+06,2049,2062
2.4341e+06,2053,2059
2.4341e+06,2050,2055
2.4341e+06,2053,2056
2.4341e+06,2056,2066
2.4342e+06,2056,2060
2.4342e+06,2053,2058
2.4342e+06,2051,2062
2.4342e+06,2054,2057
2.4342e+06,2055,2058
2.4342e+06,2054,2068
2.4342e+06,2055,2057
2.4342e+06,2057,2058
2.4342e+06,2050,2065
2.4342e+06,2056,2064
2.4342e+06,2056,2061
2.4342e+06,2054,2055
2.4342e+06,2054,2058
2.4342e+06,2062,2066
2.4342e+06,2062,2064
2.4342e+06,2064,2063
2.4342e+06,2057,2059
2.4342e+06,2055,2058
2.4342e+06,2055,2058
2.4342e+06,2059,2062
2.4342e+06,2055,2059
2.4342e+06,2058,2060
2.4342e+06,2058,2060
2.4342e+06,2054,2060
2.4342e+06,2057,2058
2.4342e+06,2061,2062
2.4343e+06,2058,2063
2.4343e+06,2053,2058
2.4343e+06,2055,2059
2.4343e+06,2059,2062
2.4343e+06,2059,2067
2.4343e+06,2058,2057
2.4343e+06,2060,2062
2.4343e+06,2055,2058
2.4343e+06,2058,2060
2.4343e+06,2061,2061
2.4343e+06,2055,2058
2.4343e+06,2055,2057
2.4343e+06,2055,2054
2.4343e+06,2059,2063
2.4343e+06,2057,2060
2.4343e+06,2054,2060
2.4343e+06,2054,2052
2.4343e+06,2056,2056
2.4343e+06,2056,2060
2.4343e+06,2060,2060
2.4343e+06,2056,2057
2.4343e+06,2053,2052
2.4343e+06,2050,2053
2.4343e+06,2053,2056
2.4343e+06,2055,2059
2.4343e+06,2056,2057
2.4344e+06,2055,2053
2.4344e+06,2066,2059
2.4344e+06,2067,2061
2.4344e+06,2064,2069
2.4344e+06,2068,2065
2.4344e+06,2062,2068
2.4344e+06,2061,2062
2.4344e+06,2081,2076
2.4344e+06,2085,2076
2.4344e+06,2088,2075
2.4344e+06,2082,2071
2.4344e+06,2088,2078
2.4344e+06,2084,2073
2.4344e+06,2088,2080
2.4344e+06,2092,2087
2.4344e+06,2085,2076
2.4344e+06,2080,2072
2.4344e+06,2073,2070
2.4344e+06,2068,2063
2.4344e+06,2061,2058
2.4344e+06,2055,2053
2.4344e+06,2047,2048
2.4344e+06,2051,2048
2.4344e+06,2052,2050
2.4344e+06,2052,2058
2.4345e+06,2053,2054
2.4345e+06,2047,2045
2.4345e+06,2043,2042
2.4345e+06,2062,2055
2.4345e+06,2055,2051
2.4345e+06,2047,2046
2.4345e+06,2047,2043
2.4345e+06,2052,2049
2.4345e+06,2053,2047
2.4345e+06,2056,2051
2.4345e+06,2047,2049
2.4345e+06,2047,2046
2.4345e+06,2052,2046
2.4345e+06,2048,2042
2.4345e+06,2035,2031
2.4345e+06,2028,2022
2.4345e+06,2029,2016
2.4345e+06,2047,2023
2.4345e+06,2105,2072
2.4345e+06,2166,2121
2.4345e+06,2236,2180
2.4345e+06,2280,2236
2.4345e+06,2312,2291
2.4345e+06,2301,2288
2.4345e+06,2257,2244
2.4345e+06,2188,2211
2.4346e+06,2132,2159
2.4346e+06,2085,2093
2.4346e+06,2054,2059
2.4346e+06,2046,2046
2.4346e+06,2048,2037
2.4346e+06,2049,2042
2.4346e+06,2054,2049
2.4346e+06,2056,2050
2.4346e+06,2063,2059
2.4346e+06,2059,2051
2.4346e+06,2055,2049
2.4346e+06,2051,2044
2.4346e+06,2054,2042
2.4346e+06,2054,2051
2.4346e+06,2063,2048
2.4346e+06,2052,2052
2.4346e+06,2058,2048
2.4346e+06,2059,2047
2.4346e+06,2059,2048
2.4346e+06,2060,2053
2.4346e+06,2060,2044
2.4346e+06,2056,2049
2.4346e+06,2057,2052
2.4346e+06,2068,2052
2.4346e+06,2069,2055
2.4347e+06,2064,2051
2.4347e+06,2062,2049
2.4347e+06,2055,2049
2.4347e+06,2063,2051
2.4347e+06,2071,2057
2.4347e+06,2067,2057
2.4347e+06,2059,2051
2.4347e+06,2066,2051
2.4347e+06,2068,2054
2.4347e+06,2073,2054
2.4347e+06,2073,2059
2.4347e+06,2068,2050
2.4347e+06,2070,2055
2.4347e+06,2077,2057
2.4347e+06,2077,2057
2.4347e+06,2079,2060
2.4347e+06,2076,2054
2.4347e+06,2077,2053
2.4347e+06,2076,2057
2.4347e+06,2085,2061
2.4347e+06,2088,2063
2.4347e+06,2086,2062
2.4347e+06,2086,2062
2.4347e+06,2095,2067
2.4347e+06,2091,2066
2.4347e+06,2093,2068
2.4348e+06,2094,2067
2.4348e+06,2085,2062
2.4348e+06,2099,2068
2.4348e+06,2107,2074
2.4348e+06,2110,2071
2.4348e+06,2113,2074
2.4348e+06,2108,2068
2.4348e+06,2108,2073
2.4348e+06,2117,2078
2.4348e+06,2116,2074
2.4348e+06,2117,2079
2.4348e+06,2121,2077
2.4348e+06,2119,2074
2.4348e+06,2123,2081
2.4348e+06,2128,2084
2.4348e+06,2118,2076
2.4348e+06,2112,2077
2.4348e+06,2108,2072
2.4348e+06,2107,2077
2.4348e+06,2107,2080
2.4348e+06,2091,2066
2.4348e+06,2086,2063
2.4348e+06,2083,2061
2.4348e+06,2077,2064
2.4348e+06,2073,2066
2.4348e+06,2072,2063
2.4349e+06,2063,2054
2.4349e+06,2059,2058
2.4349e+06,2060,2049
2.4349e+06,2061,2058
2.4349e+06,2059,2055
2.4349e+06,2052,2050
2.4349e+06,2051,2051
2.4349e+06,2051,2053
2.4349e+06,2054,2053
2.4349e+06,2052,2051
2.4349e+06,2052,2050
2.4349e+06,2053,2057
2.4349e+06,2057,2052
2.4349e+06,2056,2061
2.4349e+06,2053,2053
2.4349e+06,2052,2057
2.4349e+06,2051,2048
2.4349e+06,2048,2053
2.4349e+06,2050,2052
2.4349e+06,2048,2050
2.4349e+06,2054,2048
2.4349e+06,2049,2046
2.4349e+06,2051,2057
2.4349e+06,2054,2055
2.4349e+06,2055,2058
2.435e+06,2053,2051
2.435e+06,2051,2052
2.435e+06,2054,2051
2.435e+06,2052,2054
2.435e+06,2061,2055
2.435e+06,2055,2053
2.435e+06,2048,2043
2.435e+06,2048,2052
2.435e+06,2058,2057
2.435e+06,2054,2049
2.435e+06,2048,2049
2.435e+06,2045,2043
2.435e+06,2049,2052
2.435e+06,2057,2055
2.435e+06,2060,2054
2.435e+06,2057,2054
2.435e+06,2055,2057
2.435e+06,2055,2050
2.435e+06,2053,2052
2.435e+06,2063,2059
2.435e+06,2054,2052
2.435e+06,2054,2055
2.435e+06,2045,2047
2.435e+06,2053,2051
2.435e+06,2059,2056
2.435e+06,2053,2051
2.4351e+06,2051,2051
2.4351e+06,2049,2047
2.4351e+06,2049,2049
2.4351e+06,2052,2058
2.4351e+06,2050,2049
2.4351e+06,2048,2047
2.4351e+06,2045,2047
2.4351e+06,2051,2054
2.4351e+06,2054,2054
2.4351e+06,2047,2054
2.4351e+06,2050,2051
2.4351e+06,2042,2043
2.4351e+06,2045,2051
2.4351e+06,2047,2053
2.4351e+06,2049,2051
2.4351e+06,2046,2047
2.4351e+06,2047,2045
2.4351e+06,2053,2052
2.4351e+06,2047,2049
2.4351e+06,2051,2051
2.4351e+06,2049,2048
2.4351e+06,2050,2054
2.4351e+06,2056,2066
2.4351e+06,2060,2060
2.4351e+06,2063,2066
2.4352e+06,2067,2070
2.4352e+06,2058,2059
2.4352e+06,2059,2063
2.4352e+06,2072,2071
2.4352e+06,2086,2082
2.4352e+06,2078,2071
2.4352e+06,2077,2074
2.4352e+06,2081,2078
2.4352e+06,2082,2074
2.4352e+06,2082,2078
2.4352e+06,2080,2082
2.4352e+06,2074,2072
2.4352e+06,2070,2070
2.4352e+06,2074,2075
2.4352e+06,2061,2072
2.4352e+06,2053,2057
2.4352e+06,2052,2056
2.4352e+06,2043,2049
2.4352e+06,2047,2050
2.4352e+06,2040,2048
2.4352e+06,2052,2052
2.4352e+06,2047,2047
2.4352e+06,2048,2050
2.4352e+06,2043,2045
2.4352e+06,2046,2051
2.4352e+06,2043,2049
2.4353e+06,2044,2044
2.4353e+06,2041,2048
2.4353e+06,2043,2044
2.4353e+06,2048,2053
2.4353e+06,2045,2050
2.4353e+06,2045,2051
2.4353e+06,2042,2047
2.4353e+06,2042,2048
2.4353e+06,2042,2049
2.4353e+06,2031,2034
2.4353e+06,2019,2019
2.4353e+06,2017,2021
2.4353e+06,2043,2027
2.4353e+06,2091,2067
2.4353e+06,2150,2114
2.4353e+06,2222,2167
2.4353e+06,2265,2230
2.4353e+06,2305,2287
2.4353e+06,2307,2303
2.4353e+06,2252,2261
2.4353e+06,2193,2222
2.4353e+06,2126,2148
2.4353e+06,2074,2089
2.4353e+06,2047,2053
2.4353e+06,2044,2045
2.4353e+06,2043,2040
2.4354e+06,2039,2043
2.4354e+06,2046,2047
2.4354e+06,2055,2056
2.4354e+06,2058,2058
2.4354e+06,2051,2052
2.4354e+06,2049,2050
2.4354e+06,2044,2048
2.4354e+06,2047,2047
2.4354e+06,2051,2053
2.4354e+06,2054,2055
2.4354e+06,2045,2048
2.4354e+06,2044,2043
2.4354e+06,2041,2045
2.4354e+06,2047,2045
2.4354e+06,2041,2049
2.4354e+06,2049,2049
2.4354e+06,2051,2048
2.4354e+06,2052,2048
2.4354e+06,2048,2050
2.4354e+06,2059,2059
2.4354e+06,2052,2051
2.4354e+06,2051,2047
2.4354e+06,2049,2049
2.4354e+06,2055,2051
2.4354e+06,2060,2057
2.4355e+06,2055,2051
2.4355e+06,2054,2051
2.4355e+06,2063,2057
2.4355e+06,2063,2056
2.4355e+06,2066,2063
2.4355e+06,2055,2057
2.4355e+06,2059,2057
2.4355e+06,2064,2058
2.4355e+06,2067,2063
2.4355e+06,2069,2064
2.4355e+06,2066,2061
2.4355e+06,2065,2061
2.4355e+06,2072,2063
2.4355e+06,2072,2062
2.4355e+06,2075,2064
2.4355e+06,2073,2064
2.4355e+06,2074,2061
2.4355e+06,2076,2064
2.4355e+06,2083,2069
2.4355e+06,2085,2075
2.4355e+06,2092,2075
2.4355e+06,2091,2072
2.4355e+06,2090,2072
2.4355e+06,2094,2076
2.4355e+06,2103,2081
2.4355e+06,2105,2084
2.4356e+06,2109,2083
2.4356e+06,2105,2076
2.4356e+06,2111,2082
2.4356e+06,2109,2085
2.4356e+06,2113,2087
2.4356e+06,2116,2085
2.4356e+06,2113,2086
2.4356e+06,2119,2090
2.4356e+06,2123,2091
2.4356e+06,2123,2093
2.4356e+06,2117,2091
2.4356e+06,2110,2087
2.4356e+06,2102,2081
2.4356e+06,2102,2083
2.4356e+06,2103,2086
2.4356e+06,2099,2083
2.4356e+06,2088,2082
2.4356e+06,2074,2066
2.4356e+06,2070,2071
2.4356e+06,2075,2066
2.4356e+06,2063,2065
2.4356e+06,2061,2063
2.4356e+06,2056,2061
2.4356e+06,2056,2061
2.4356e+06,2058,2062
2.4357e+06,2055,2059
2.4357e+06,2052,2066
2.4357e+06,2047,2054
2.4357e+06,2048,2054
2.4357e+06,2052,2060
2.4357e+06,2051,2057
2.4357e+06,2045,2051
2.4357e+06,2046,2059
2.4357e+06,2046,2055
2.4357e+06,2049,2060
2.4357e+06,2045,2054
2.4357e+06,2039,2051
2.4357e+06,2050,2053
2.4357e+06,2043,2052
2.4357e+06,2048,2055
2.4357e+06,2051,2058
2.4357e+06,2047,2052
2.4357e+06,2049,2054
2.4357e+06,2047,2057
2.4357e+06,2046,2056
2.4357e+06,2051,2059
2.4357e+06,2047,2054
2.4357e+06,2050,2052
2.4357e+06,2052,2058
2.4357e+06,2051,2060
2.4357e+06,2046,2055
2.4358e+06,2051,2062
2.4358e+06,2047,2052
2.4358e+06,2053,2055
2.4358e+06,2051,2058
2.4358e+06,2050,2056
2.4358e+06,2048,2057
2.4358e+06,2046,2053
2.4358e+06,2057,2055
2.4358e+06,2050,2056
2.4358e+06,2049,2057
2.4358e+06,2053,2056
2.4358e+06,2053,2058
2.4358e+06,2043,2051
2.4358e+06,2051,2060
2.4358e+06,2054,2059
2.4358e+06,2052,2057
2.4358e+06,2047,2042
2.4358e+06,2045,2047
2.4358e+06,2047,2051
2.4358e+06,2057,2060
2.4358e+06,2048,2055
2.4358e+06,2047,2049
2.4358e+06,2047,2054
2.4358e+06,2050,2058
2.4358e+06,2050,2059
2.4358e+06,2046,2056
2.4359e+06,2048,2051
2.4359e+06,2045,2043
2.4359e+06,2047,2055
2.4359e+06,2053,2056
2.4359e+06,2048,2056
2.4359e+06,2049,2051
2.4359e+06,2045,2047
2.4359e+06,2044,2051
2.4359e+06,2049,2054
2.4359e+06,2048,2056
2.4359e+06,2044,2054
2.4359e+06,2045,2049
2.4359e+06,2046,2049
2.4359e+06,2049,2055
2.4359e+06,2044,2055
2.4359e+06,2042,2051
2.4359e+06,2044,2045
2.4359e+06,2045,2051
2.4359e+06,2052,2055
2.4359e+06,2047,2052
2.4359e+06,2048,2050
2.4359e+06,2044,2050
2.4359e+06,2040,2047
2.4359e+06,2046,2053
2.4359e+06,2048,2054
2.436e+06,2052,2057
2.436e+06,2046,2050
2.436e+06,2053,2061
2.436e+06,2060,2065
2.436e+06,2062,2071
2.436e+06,2056,2063
2.436e+06,2060,2062
2.436e+06,2067,2069
2.436e+06,2073,2072
2.436e+06,2074,2072
2.436e+06,2073,2071
2.436e+06,2070,2068
2.436e+06,2071,2064
2.436e+06,2077,2073
2.436e+06,2075,2075
2.436e+06,2079,2080
2.436e+06,2060,2067
2.436e+06,2057,2061
2.436e+06,2051,2052
2.436e+06,2045,2050
2.436e+06,2047,2051
2.436e+06,2039,2048
2.436e+06,2039,2042
2.436e+06,2043,2046
2.436e+06,2036,2042
2.436e+06,2040,2044
2.4361e+06,2038,2044
2.4361e+06,2036,2038
2.4361e+06,2036,2046
2.4361e+06,2038,2048
2.4361e+06,2040,2047
2.4361e+06,2034,2043
2.4361e+06,2036,2047
2.4361e+06,2037,2041
2.4361e+06,2040,2047
2.4361e+06,2037,2047
2.4361e+06,2039,2050
2.4361e+06,2037,2040
2.4361e+06,2029,2036
2.4361e+06,2027,2027
2.4361e+06,2018,2022
2.4361e+06,2015,2013
2.4361e+06,2045,2026
2.4361e+06,2090,2060
2.4361e+06,2159,2117
2.4361e+06,2225,2179
2.4361e+06,2270,2232
2.4361e+06,2308,2303
2.4361e+06,2291,2295
2.4361e+06,2239,2244
2.4361e+06,2176,2193
2.4362e+06,2107,2127
2.4362e+06,2051,2065
2.4362e+06,2036,2041
2.4362e+06,2044,2045
2.4362e+06,2047,2047
2.4362e+06,2047,2051
2.4362e+06,2040,2047
2.4362e+06,2040,2049
2.4362e+06,2042,2045
2.4362e+06,2047,2048
2.4362e+06,2045,2043
2.4362e+06,2039,2043
2.4362e+06,2037,2043
2.4362e+06,2047,2042
2.4362e+06,2039,2049
2.4362e+06,2045,2047
2.4362e+06,2042,2041
2.4362e+06,2042,2041
2.4362e+06,2043,2042
2.4362e+06,2047,2044
2.4362e+06,2039,2043
2.4362e+06,2039,2037
2.4362e+06,2041,2036
2.4362e+06,2042,2034
2.4362e+06,2050,2046
2.4362e+06,2050,2048
2.4363e+06,2046,2042
2.4363e+06,2043,2035
2.4363e+06,2047,2046
2.4363e+06,2059,2051
2.4363e+06,2051,2044
2.4363e+06,2051,2051
2.4363e+06,2047,2036
2.4363e+06,2046,2039
2.4363e+06,2047,2043
2.4363e+06,2055,2051
2.4363e+06,2046,2052
2.4363e+06,2058,2051
2.4363e+06,2051,2049
2.4363e+06,2060,2050
2.4363e+06,2063,2058
2.4363e+06,2060,2051
2.4363e+06,2053,2048
2.4363e+06,2060,2043
2.4363e+06,2062,2051
2.4363e+06,2063,2055
2.4363e+06,2063,2053
2.4363e+06,2075,2058
2.4363e+06,2073,2057
2.4363e+06,2077,2060
2.4363e+06,2079,2064
2.4363e+06,2069,2062
2.4364e+06,2088,2067
2.4364e+06,2084,2063
2.4364e+06,2086,2065
2.4364e+06,2094,2069
2.4364e+06,2095,2070
2.4364e+06,2095,2069
2.4364e+06,2090,2068
2.4364e+06,2094,2069
2.4364e+06,2103,2078
2.4364e+06,2106,2077
2.4364e+06,2107,2082
2.4364e+06,2108,2074
2.4364e+06,2103,2078
2.4364e+06,2108,2083
2.4364e+06,2103,2076
2.4364e+06,2101,2077
2.4364e+06,2095,2075
2.4364e+06,2094,2072
2.4364e+06,2085,2073
2.4364e+06,2086,2069
2.4364e+06,2073,2063
2.4364e+06,2066,2063
2.4364e+06,2062,2056
2.4364e+06,2056,2054
2.4364e+06,2054,2050
2.4365e+06,2046,2048
2.4365e+06,2043,2043
2.4365e+06,2041,2043
2.4365e+06,2037,2044
2.4365e+06,2041,2048
2.4365e+06,2039,2043
2.4365e+06,2032,2041
2.4365e+06,2029,2042
2.4365e+06,2041,2048
2.4365e+06,2035,2045
2.4365e+06,2034,2042
2.4365e+06,2030,2041
2.4365e+06,2030,2046
2.4365e+06,2035,2045
2.4365e+06,2036,2044
2.4365e+06,2035,2041
2.4365e+06,2031,2041
2.4365e+06,2032,2046
2.4365e+06,2033,2045
2.4365e+06,2039,2039
2.4365e+06,2037,2045
2.4365e+06,2033,2043
2.4365e+06,2035,2039
2.4365e+06,2037,2043
2.4365e+06,2039,2045
2.4365e+06,2035,2045
2.4366e+06,2038,2039
2.4366e+06,2031,2041
2.4366e+06,2029,2045
2.4366e+06,2036,2043
2.4366e+06,2040,2044
2.4366e+06,2033,2042
2.4366e+06,2035,2043
2.4366e+06,2037,2047
2.4366e+06,2038,2047
2.4366e+06,2040,2047
2.4366e+06,2028,2046
2.4366e+06,2032,2033
2.4366e+06,2032,2046
2.4366e+06,2031,2045
2.4366e+06,2038,2039
2.4366e+06,2033,2047
2.4366e+06,2037,2044
2.4366e+06,2025,2039
2.4366e+06,2036,2047
2.4366e+06,2037,2048
2.4366e+06,2028,2042
2.4366e+06,2027,2034
2.4366e+06,2034,2043
2.4366e+06,2039,2040
2.4366e+06,2035,2044
2.4367e+06,2036,2039
2.4367e+06,2033,2042
2.4367e+06,2034,2042
2.4367e+06,2034,2038
2.4367e+06,2036,2046
2.4367e+06,2038,2043
2.4367e+06,2027,2038
2.4367e+06,2037,2040
2.4367e+06,2041,2047
2.4367e+06,2036,2046
2.4367e+06,2026,2038
2.4367e+06,2026,2037
2.4367e+06,2032,2037
2.4367e+06,2033,2044
2.4367e+06,2032,2047
2.4367e+06,2039,2045
2.4367e+06,2030,2032
2.4367e+06,2027,2035
2.4367e+06,2033,2037
2.4367e+06,2037,2043
2.4367e+06,2036,2045
2.4367e+06,2031,2034
2.4367e+06,2031,2041
2.4367e+06,2035,2043
2.4367e+06,2036,2047
2.4367e+06,2036,2043
2.4368e+06,2031,2037
2.4368e+06,2020,2039
2.4368e+06,2034,2039
2.4368e+06,2040,2050
2.4368e+06,2032,2042
2.4368e+06,2033,2042
2.4368e+06,2036,2047
2.4368e+06,2038,2045
2.4368e+06,2043,2054
2.4368e+06,2043,2051
2.4368e+06,2045,2052
2.4368e+06,2042,2051
2.4368e+06,2048,2052
2.4368e+06,2053,2058
2.4368e+06,2056,2055
2.4368e+06,2058,2056
2.4368e+06,2049,2052
2.4368e+06,2058,2055
2.4368e+06,2065,2066
2.4368e+06,2067,2063
2.4368e+06,2063,2063
2.4368e+06,2054,2060
2.4368e+06,2054,2055
2.4368e+06,2052,2055
2.4368e+06,2043,2048
2.4368e+06,2032,2042
2.4369e+06,2035,2038
2.4369e+06,2032,2042
2.4369e+06,2030,2040
2.4369e+06,2032,2042
2.4369e+06,2033,2044
2.4369e+06,2024,2036
2.4369e+06,2026,2033
2.4369e+06,2028,2037
2.4369e+06,2028,2045
2.4369e+06,2026,2040
2.4369e+06,2028,2040
2.4369e+06,2026,2034
2.4369e+06,2027,2038
2.4369e+06,2029,2038
2.4369e+06,2022,2036
2.4369e+06,2023,2039
2.4369e+06,2023,2039
2.4369e+06,2031,2043
2.4369e+06,2022,2033
2.4369e+06,2024,2033
2.4369e+06,2004,2010
2.4369e+06,2004,2010
2.4369e+06,2022,2011
2.4369e+06,2067,2043
2.4369e+06,2135,2100
2.437e+06,2202,2156
2.437e+06,2245,2207
2.437e+06,2287,2280
2.437e+06,2302,2304
2.437e+06,2237,2252
2.437e+06,2173,2201
2.437e+06,2107,2137
2.437e+06,2050,2071
2.437e+06,2037,2050
2.437e+06,2036,2038
2.437e+06,2035,2047
2.437e+06,2035,2034
2.437e+06,2037,2041
2.437e+06,2036,2044
2.437e+06,2035,2047
2.437e+06,2037,2045
2.437e+06,2034,2038
2.437e+06,2028,2039
2.437e+06,2035,2040
2.437e+06,2039,2041
2.437e+06,2033,2040
2.437e+06,2030,2036
2.437e+06,2030,2038
2.437e+06,2038,2045
2.437e+06,2026,2043
2.437e+06,2038,2037
2.4371e+06,2034,2038
2.4371e+06,2035,2038
2.4371e+06,2035,2047
2.4371e+06,2041,2042
2.4371e+06,2036,2043
2.4371e+06,2037,2040
2.4371e+06,2040,2039
2.4371e+06,2035,2040
2.4371e+06,2044,2045
2.4371e+06,2047,2051
2.4371e+06,2040,2043
2.4371e+06,2038,2039
2.4371e+06,2041,2039
2.4371e+06,2046,2038
2.4371e+06,2047,2044
2.4371e+06,2045,2049
2.4371e+06,2041,2045
2.4371e+06,2044,2039
2.4371e+06,2045,2043
2.4371e+06,2052,2056
2.4371e+06,2050,2051
2.4371e+06,2054,2049
2.4371e+06,2053,2048
2.4371e+06,2055,2047
2.4371e+06,2062,2059
2.4372e+06,2062,2051
2.4372e+06,2059,2050
2.4372e+06,2055,2058
2.4372e+06,2063,2055
2.4372e+06,2066,2060
2.4372e+06,2070,2064
2.4372e+06,2067,2055
2.4372e+06,2077,2065
2.4372e+06,2075,2061
2.4372e+06,2080,2067
2.4372e+06,2082,2068
2.4372e+06,2081,2062
2.4372e+06,2086,2064
2.4372e+06,2098,2077
2.4372e+06,2092,2071
2.4372e+06,2097,2077
2.4372e+06,2101,2077
2.4372e+06,2095,2074
2.4372e+06,2094,2075
2.4372e+06,2099,2080
2.4372e+06,2104,2080
2.4372e+06,2102,2082
2.4372e+06,2100,2078
2.4372e+06,2098,2074
2.4372e+06,2091,2074
2.4372e+06,2082,2075
2.4373e+06,2074,2064
2.4373e+06,2069,2059
2.4373e+06,2065,2061
2.4373e+06,2063,2063
2.4373e+06,2056,2060
2.4373e+06,2049,2054
2.4373e+06,2037,2048
2.4373e+06,2043,2047
2.4373e+06,2036,2047
2.4373e+06,2039,2046
2.4373e+06,2038,2049
2.4373e+06,2031,2043
2.4373e+06,2030,2044
2.4373e+06,2035,2047
2.4373e+06,2035,2048
2.4373e+06,2032,2045
2.4373e+06,2029,2043
2.4373e+06,2025,2041
2.4373e+06,2033,2041
2.4373e+06,2032,2049
2.4373e+06,2031,2041
2.4373e+06,2030,2048
2.4373e+06,2030,2038
2.4373e+06,2031,2044
2.4373e+06,2025,2047
2.4373e+06,2029,2043
2.4374e+06,2030,2044
2.4374e+06,2029,2040
2.4374e+06,2034,2045
2.4374e+06,2033,2044
2.4374e+06,2038,2048
2.4374e+06,2033,2044
2.4374e+06,2028,2045
2.4374e+06,2031,2034
2.4374e+06,2033,2044
2.4374e+06,2037,2050
2.4374e+06,2033,2042
2.4374e+06,2032,2043
2.4374e+06,2037,2041
2.4374e+06,2038,2048
2.4374e+06,2031,2042
2.4374e+06,2031,2044
2.4374e+06,2031,2040
2.4374e+06,2031,2044
2.4374e+06,2039,2040
2.4374e+06,2031,2043
2.4374e+06,2035,2047
2.4374e+06,2031,2039
2.4374e+06,2032,2043
2.4374e+06,2029,2044
2.4374e+06,2034,2046
2.4375e+06,2033,2044
2.4375e+06,2032,2041
2.4375e+06,2031,2041
2.4375e+06,2032,2038
2.4375e+06,2039,2042
2.4375e+06,2032,2042
2.4375e+06,2028,2041
2.4375e+06,2029,2038
2.4375e+06,2038,2046
2.4375e+06,2030,2044
2.4375e+06,2030,2034
2.4375e+06,2028,2041
2.4375e+06,2031,2041
2.4375e+06,2030,2042
2.4375e+06,2031,2040
2.4375e+06,2032,2040
2.4375e+06,2030,2038
2.4375e+06,2027,2036
2.4375e+06,2027,2037
2.4375e+06,2029,2042
2.4375e+06,2033,2041
2.4375e+06,2029,2039
2.4375e+06,2026,2033
2.4375e+06,2031,2041
2.4375e+06,2027,2043
2.4375e+06,2026,2035
2.4376e+06,2031,2036
2.4376e+06,2026,2036
2.4376e+06,2023,2034
2.4376e+06,2030,2034
2.4376e+06,2031,2038
2.4376e+06,2033,2046
2.4376e+06,2029,2037
2.4376e+06,2019,2038
2.4376e+06,2037,2044
2.4376e+06,2042,2055
2.4376e+06,2035,2044
2.4376e+06,2030,2042
2.4376e+06,2045,2052
2.4376e+06,2044,2051
2.4376e+06,2049,2047
2.4376e+06,2040,2041
2.4376e+06,2047,2048
2.4376e+06,2057,2055
2.4376e+06,2059,2054
2.4376e+06,2055,2060
2.4376e+06,2055,2060
2.4376e+06,2053,2055
2.4376e+06,2056,2054
2.4376e+06,2057,2056
2.4376e+06,2057,2057
2.4377e+06,2034,2045
2.4377e+06,2031,2034
2.4377e+06,2020,2028
2.4377e+06,2032,2044
2.4377e+06,2033,2043
2.4377e+06,2032,2041
2.4377e+06,2023,2034
2.4377e+06,2023,2035
2.4377e+06,2030,2037
2.4377e+06,2023,2038
2.4377e+06,2023,2037
2.4377e+06,2022,2031
2.4377e+06,2022,2031
2.4377e+06,2028,2034
2.4377e+06,2028,2038
2.4377e+06,2029,2036
2.4377e+06,2021,2030
2.4377e+06,2020,2032
2.4377e+06,2023,2032
2.4377e+06,2024,2041
2.4377e+06,2027,2036
2.4377e+06,2018,2024
2.4377e+06,2004,2009
2.4377e+06,1999,2002
2.4377e+06,2011,2009
2.4377e+06,2041,2025
2.4378e+06,2083,2054
2.4378e+06,2155,2117
2.4378e+06,2221,2174
2.4378e+06,2270,2237
2.4378e+06,2292,2289
2.4378e+06,2267,2265
2.4378e+06,2207,2225
2.4378e+06,2150,2180
2.4378e+06,2090,2124
2.4378e+06,2048,2066
2.4378e+06,2020,2028
2.4378e+06,2020,2020
2.4378e+06,2021,2026
2.4378e+06,2030,2033
2.4378e+06,2031,2034
2.4378e+06,2033,2035
2.4378e+06,2029,2033
2.4378e+06,2023,2029
2.4378e+06,2034,2034
2.4378e+06,2035,2038
2.4378e+06,2034,2031
2.4378e+06,2030,2026
2.4378e+06,2031,2028
2.4378e+06,2035,2035
2.4378e+06,2025,2032
2.4378e+06,2032,2031
2.4379e+06,2033,2034
2.4379e+06,2028,2027
2.4379e+06,2028,2031
2.4379e+06,2033,2031
2.4379e+06,2037,2031
2.4379e+06,2031,2028
2.4379e+06,2032,2026
2.4379e+06,2034,2026
2.4379e+06,2039,2039
2.4379e+06,2043,2037
2.4379e+06,2040,2035
2.4379e+06,2038,2032
2.4379e+06,2035,2032
2.4379e+06,2047,2040
2.4379e+06,2042,2039
2.4379e+06,2043,2035
2.4379e+06,2040,2035
2.4379e+06,2045,2039
2.4379e+06,2048,2039
2.4379e+06,2049,2038
2.4379e+06,2046,2038
2.4379e+06,2045,2034
2.4379e+06,2050,2038
2.4379e+06,2052,2038
2.4379e+06,2051,2043
2.438e+06,2056,2040
2.438e+06,2054,2037
2.438e+06,2054,2041
2.438e+06,2063,2041
2.438e+06,2068,2048
2.438e+06,2056,2045
2.438e+06,2064,2044
2.438e+06,2072,2044
2.438e+06,2071,2053
2.438e+06,2074,2051
2.438e+06,2083,2052
2.438e+06,2080,2047
2.438e+06,2077,2052
2.438e+06,2087,2053
2.438e+06,2083,2054
2.438e+06,2092,2056
2.438e+06,2091,2056
2.438e+06,2097,2058
2.438e+06,2100,2063
2.438e+06,2101,2064
2.438e+06,2101,2068
2.438e+06,2090,2062
2.438e+06,2094,2058
2.438e+06,2102,2067
2.438e+06,2097,2060
2.438e+06,2091,2066
2.4381e+06,2088,2061
2.4381e+06,2079,2048
2.4381e+06,2078,2060
2.4381e+06,2064,2052
2.4381e+06,2066,2047
2.4381e+06,2055,2047
2.4381e+06,2046,2040
2.4381e+06,2042,2035
2.4381e+06,2044,2041
2.4381e+06,2049,2042
2.4381e+06,2048,2038
2.4381e+06,2032,2033
2.4381e+06,2036,2037
2.4381e+06,2037,2036
2.4381e+06,2036,2037
2.4381e+06,2035,2035
2.4381e+06,2031,2032
2.4381e+06,2033,2030
2.4381e+06,2039,2034
2.4381e+06,2035,2036
2.4381e+06,2026,2031
2.4381e+06,2030,2032
2.4381e+06,2033,2037
2.4381e+06,2035,2036
2.4381e+06,2034,2035
2.4382e+06,2040,2038
2.4382e+06,2033,2030
2.4382e+06,2025,2033
2.4382e+06,2031,2034
2.4382e+06,2038,2038
2.4382e+06,2037,2040
2.4382e+06,2032,2027
2.4382e+06,2040,2034
2.4382e+06,2033,2033
2.4382e+06,2038,2035
2.4382e+06,2034,2033
2.4382e+06,2036,2029
2.4382e+06,2035,2031
2.4382e+06,2041,2034
2.4382e+06,2039,2030
2.4382e+06,2037,2036
2.4382e+06,2033,2031
2.4382e+06,2032,2030
2.4382e+06,2043,2033
2.4382e+06,2041,2037
2.4382e+06,2042,2032
2.4382e+06,2033,2032
2.4382e+06,2035,2029
2.4382e+06,2039,2035
2.4382e+06,2041,2032
2.4382e+06,2040,2029
2.4383e+06,2030,2031
2.4383e+06,2032,2030
2.4383e+06,2035,2034
2.4383e+06,2040,2035
2.4383e+06,2041,2034
2.4383e+06,2035,2026
2.4383e+06,2031,2027
2.4383e+06,2035,2030
2.4383e+06,2034,2027
2.4383e+06,2038,2031
2.4383e+06,2023,2029
2.4383e+06,2030,2022
2.4383e+06,2034,2024
2.4383e+06,2035,2034
2.4383e+06,2034,2029
2.4383e+06,2035,2031
2.4383e+06,2026,2031
2.4383e+06,2031,2030
2.4383e+06,2039,2039
2.4383e+06,2041,2037
2.4383e+06,2039,2037
2.4383e+06,2037,2035
2.4383e+06,2045,2039
2.4383e+06,2044,2038
2.4383e+06,2042,2048
2.4383e+06,2047,2048
2.4384e+06,2048,2037
2.4384e+06,2052,2040
2.4384e+06,2059,2044
2.4384e+06,2064,2054
2.4384e+06,2062,2057
2.4384e+06,2056,2053
2.4384e+06,2062,2051
2.4384e+06,2060,2051
2.4384e+06,2059,2057
2.4384e+06,2060,2056
2.4384e+06,2049,2044
2.4384e+06,2043,2037
2.4384e+06,2037,2033
2.4384e+06,2037,2035
2.4384e+06,2035,2031
2.4384e+06,2030,2032
2.4384e+06,2026,2034
2.4384e+06,2023,2031
2.4384e+06,2035,2034
2.4384e+06,2033,2036
2.4384e+06,2027,2027
2.4384e+06,2034,2030
2.4384e+06,2031,2035
2.4384e+06,2031,2030
2.4384e+06,2032,2032
2.4385e+06,2031,2039
2.4385e+06,2029,2030
2.4385e+06,2030,2027
2.4385e+06,2035,2034
2.4385e+06,2036,2039
2.4385e+06,2030,2031
2.4385e+06,2019,2028
2.4385e+06,2018,2017
2.4385e+06,2009,2010
2.4385e+06,2006,2005
2.4385e+06,2022,2004
2.4385e+06,2059,2038
2.4385e+06,2119,2077
2.4385e+06,2198,2149
2.4385e+06,2249,2205
2.4385e+06,2289,2265
2.4385e+06,2293,2285
2.4385e+06,2241,2242
2.4385e+06,2187,2212
2.4385e+06,2125,2152
2.4385e+06,2083,2099
2.4385e+06,2037,2042
2.4385e+06,2023,2023
2.4385e+06,2032,2026
2.4385e+06,2039,2036
2.4385e+06,2035,2023
2.4386e+06,2039,2033
2.4386e+06,2037,2034
2.4386e+06,2041,2032
2.4386e+06,2037,2034
2.4386e+06,2035,2033
2.4386e+06,2040,2038
2.4386e+06,2038,2033
2.4386e+06,2036,2034
2.4386e+06,2035,2036
2.4386e+06,2041,2037
2.4386e+06,2037,2032
2.4386e+06,2034,2032
2.4386e+06,2038,2034
2.4386e+06,2046,2035
2.4386e+06,2041,2027
2.4386e+06,2040,2032
2.4386e+06,2039,2024
2.4386e+06,2045,2034
2.4386e+06,2044,2026
2.4386e+06,2038,2026
2.4386e+06,2041,2029
2.4386e+06,2042,2024
2.4386e+06,2047,2024
2.4386e+06,2048,2029
2.4386e+06,2050,2032
2.4387e+06,2048,2031
2.4387e+06,2047,2027
2.4387e+06,2052,2027
2.4387e+06,2049,2027
2.4387e+06,2054,2034
2.4387e+06,2056,2036
2.4387e+06,2052,2031
2.4387e+06,2043,2031
2.4387e+06,2061,2040
2.4387e+06,2059,2037
2.4387e+06,2056,2036
2.4387e+06,2057,2037
2.4387e+06,2056,2037
2.4387e+06,2064,2042
2.4387e+06,2066,2045
2.4387e+06,2073,2046
2.4387e+06,2066,2047
2.4387e+06,2075,2051
2.4387e+06,2076,2049
2.4387e+06,2074,2052
2.4387e+06,2083,2052
2.4387e+06,2079,2052
2.4387e+06,2085,2054
2.4387e+06,2086,2057
2.4387e+06,2093,2063
2.4387e+06,2093,2058
2.4388e+06,2094,2062
2.4388e+06,2099,2058
2.4388e+06,2099,2063
2.4388e+06,2110,2071
2.4388e+06,2103,2069
2.4388e+06,2103,2070
2.4388e+06,2101,2067
2.4388e+06,2104,2068
2.4388e+06,2104,2071
2.4388e+06,2101,2063
2.4388e+06,2095,2067
2.4388e+06,2090,2061
2.4388e+06,2084,2061
2.4388e+06,2084,2059
2.4388e+06,2074,2060
2.4388e+06,2072,2057
2.4388e+06,2058,2047
2.4388e+06,2054,2047
2.4388e+06,2051,2049
2.4388e+06,2055,2051
2.4388e+06,2047,2044
2.4388e+06,2039,2037
2.4388e+06,2043,2042
2.4388e+06,2042,2040
2.4388e+06,2040,2046
2.4388e+06,2036,2041
2.4389e+06,2039,2038
2.4389e+06,2036,2038
2.4389e+06,2035,2037
2.4389e+06,2042,2042
2.4389e+06,2042,2045
2.4389e+06,2037,2038
2.4389e+06,2031,2033
2.4389e+06,2036,2035
2.4389e+06,2035,2038
2.4389e+06,2037,2035
2.4389e+06,2041,2041
2.4389e+06,2036,2037
2.4389e+06,2040,2046
2.4389e+06,2042,2044
2.4389e+06,2041,2040
2.4389e+06,2038,2038
2.4389e+06,2037,2039
2.4389e+06,2042,2044
2.4389e+06,2043,2048
2.4389e+06,2045,2046
2.4389e+06,2044,2041
2.4389e+06,2042,2042
2.4389e+06,2041,2040
2.4389e+06,2040,2041
2.4389e+06,2043,2043
2.439e+06,2043,2044
2.439e+06,2037,2038
2.439e+06,2039,2039
2.439e+06,2042,2047
2.439e+06,2047,2045
2.439e+06,2041,2043
2.439e+06,2036,2040
2.439e+06,2038,2045
2.439e+06,2047,2040
2.439e+06,2045,2043
2.439e+06,2039,2040
2.439e+06,2038,2036
2.439e+06,2039,2038
2.439e+06,2042,2043
2.439e+06,2043,2047
2.439e+06,2038,2048
2.439e+06,2047,2047
2.439e+06,2026,2039
2.439e+06,2048,2047
2.439e+06,2043,2044
2.439e+06,2038,2040
2.439e+06,2035,2040
2.439e+06,2036,2041
2.439e+06,2041,2048
2.439e+06,2042,2047
2.439e+06,2036,2043
2.4391e+06,2038,2041
2.4391e+06,2038,2043
2.4391e+06,2031,2043
2.4391e+06,2043,2049
2.4391e+06,2038,2040
2.4391e+06,2034,2042
2.4391e+06,2037,2039
2.4391e+06,2040,2041
2.4391e+06,2035,2047
2.4391e+06,2043,2045
2.4391e+06,2037,2039
2.4391e+06,2037,2043
2.4391e+06,2039,2043
2.4391e+06,2040,2050
2.4391e+06,2047,2053
2.4391e+06,2049,2052
2.4391e+06,2047,2046
2.4391e+06,2053,2059
2.4391e+06,2056,2063
2.4391e+06,2058,2067
2.4391e+06,2059,2060
2.4391e+06,2056,2058
2.4391e+06,2061,2059
2.4391e+06,2069,2065
2.4391e+06,2068,2068
2.4392e+06,2072,2067
2.4392e+06,2067,2067
2.4392e+06,2066,2063
2.4392e+06,2058,2067
2.4392e+06,2063,2068
2.4392e+06,2058,2060
2.4392e+06,2043,2044
2.4392e+06,2038,2042
2.4392e+06,2042,2045
2.4392e+06,2038,2043
2.4392e+06,2038,2047
2.4392e+06,2032,2041
2.4392e+06,2029,2040
2.4392e+06,2029,2041
2.4392e+06,2039,2044
2.4392e+06,2035,2039
2.4392e+06,2032,2035
2.4392e+06,2030,2038
2.4392e+06,2031,2042
2.4392e+06,2033,2038
2.4392e+06,2029,2044
2.4392e+06,2030,2040
2.4392e+06,2030,2036
2.4392e+06,2033,2041
2.4392e+06,2035,2041
2.4392e+06,2033,2040
2.4393e+06,2028,2036
2.4393e+06,2013,2027
2.4393e+06,2007,2019
2.4393e+06,2007,2015
2.4393e+06,2033,2020
2.4393e+06,2072,2046
2.4393e+06,2127,2086
2.4393e+06,2199,2155
2.4393e+06,2258,2215
2.4393e+06,2297,2277
2.4393e+06,2300,2306
2.4393e+06,2244,2258
2.4393e+06,2187,2216
2.4393e+06,2125,2151
2.4393e+06,2070,2085
2.4393e+06,2036,2047
2.4393e+06,2035,2034
2.4393e+06,2039,2040
2.4393e+06,2039,2047
2.4393e+06,2049,2053
2.4393e+06,2046,2054
2.4393e+06,2038,2041
2.4393e+06,2036,2042
2.4393e+06,2041,2044
2.4393e+06,2039,2046
2.4393e+06,2036,2041
2.4394e+06,2038,2039
2.4394e+06,2037,2038
2.4394e+06,2039,2042
2.4394e+06,2043,2043
2.4394e+06,2040,2041
2.4394e+06,2037,2039
2.4394e+06,2036,2036
2.4394e+06,2037,2040
2.4394e+06,2039,2043
2.4394e+06,2041,2042
2.4394e+06,2035,2035
2.4394e+06,2041,2043
2.4394e+06,2045,2048
2.4394e+06,2047,2046
2.4394e+06,2039,2045
2.4394e+06,2041,2040
2.4394e+06,2038,2042
2.4394e+06,2044,2042
2.4394e+06,2050,2049
2.4394e+06,2054,2049
2.4394e+06,2049,2041
2.4394e+06,2052,2047
2.4394e+06,2049,2043
2.4394e+06,2053,2047
2.4394e+06,2053,2051
2.4395e+06,2053,2049
2.4395e+06,2048,2045
2.4395e+06,2055,2048
2.4395e+06,2058,2049
2.4395e+06,2059,2055
2.4395e+06,2060,2051
2.4395e+06,2058,2050
2.4395e+06,2064,2059
2.4395e+06,2065,2056
2.4395e+06,2068,2061
2.4395e+06,2065,2055
2.4395e+06,2077,2058
2.4395e+06,2075,2061
2.4395e+06,2076,2063
2.4395e+06,2084,2068
2.4395e+06,2088,2071
2.4395e+06,2083,2064
2.4395e+06,2089,2070
2.4395e+06,2093,2074
2.4395e+06,2098,2072
2.4395e+06,2098,2074
2.4395e+06,2095,2070
2.4395e+06,2098,2072
2.4395e+06,2102,2074
2.4395e+06,2106,2081
2.4395e+06,2108,2084
2.4396e+06,2105,2081
2.4396e+06,2107,2076
2.4396e+06,2105,2082
2.4396e+06,2102,2080
2.4396e+06,2099,2078
2.4396e+06,2086,2070
2.4396e+06,2085,2063
2.4396e+06,2078,2070
2.4396e+06,2079,2069
2.4396e+06,2074,2064
2.4396e+06,2061,2059
2.4396e+06,2054,2051
2.4396e+06,2052,2054
2.4396e+06,2050,2055
2.4396e+06,2049,2051
2.4396e+06,2036,2050
2.4396e+06,2040,2045
2.4396e+06,2038,2044
2.4396e+06,2043,2049
2.4396e+06,2037,2046
2.4396e+06,2033,2047
2.4396e+06,2025,2038
2.4396e+06,2032,2047
2.4396e+06,2041,2049
2.4396e+06,2040,2046
2.4397e+06,2039,2048
2.4397e+06,2038,2045
2.4397e+06,2032,2044
2.4397e+06,2031,2047
2.4397e+06,2037,2050
2.4397e+06,2038,2050
2.4397e+06,2037,2047
2.4397e+06,2035,2048
2.4397e+06,2039,2046
2.4397e+06,2042,2049
2.4397e+06,2035,2047
2.4397e+06,2039,2044
2.4397e+06,2035,2048
2.4397e+06,2039,2049
2.4397e+06,2045,2054
2.4397e+06,2039,2046
2.4397e+06,2036,2044
2.4397e+06,2035,2043
2.4397e+06,2037,2048
2.4397e+06,2045,2047
2.4397e+06,2038,2048
2.4397e+06,2035,2046
2.4397e+06,2037,2043
2.4397e+06,2041,2047
2.4397e+06,2045,2052
2.4397e+06,2042,2054
2.4398e+06,2039,2045
2.4398e+06,2038,2042
2.4398e+06,2035,2044
2.4398e+06,2043,2056
2.4398e+06,2047,2051
2.4398e+06,2041,2048
2.4398e+06,2035,2041
2.4398e+06,2040,2046
2.4398e+06,2043,2047
2.4398e+06,2042,2048
2.4398e+06,2036,2048
2.4398e+06,2039,2045
2.4398e+06,2036,2044
2.4398e+06,2042,2050
2.4398e+06,2037,2049
2.4398e+06,2041,2044
2.4398e+06,2037,2044
2.4398e+06,2036,2038
2.4398e+06,2036,2045
2.4398e+06,2040,2054
2.4398e+06,2039,2048
2.4398e+06,2039,2046
2.4398e+06,2035,2047
2.4398e+06,2042,2052
2.4398e+06,2037,2047
2.4398e+06,2035,2052
2.4399e+06,2031,2045
2.4399e+06,2037,2043
2.4399e+06,2037,2046
2.4399e+06,2039,2050
2.4399e+06,2040,2052
2.4399e+06,2039,2045
2.4399e+06,2039,2051
2.4399e+06,2035,2044
2.4399e+06,2037,2052
2.4399e+06,2038,2045
2.4399e+06,2042,2053
2.4399e+06,2047,2052
2.4399e+06,2047,2059
2.4399e+06,2048,2062
2.4399e+06,2043,2061
2.4399e+06,2048,2056
2.4399e+06,2045,2059
2.4399e+06,2056,2061
2.4399e+06,2066,2069
2.4399e+06,2064,2066
2.4399e+06,2063,2063
2.4399e+06,2062,2066
2.4399e+06,2068,2069
2.4399e+06,2070,2069
2.4399e+06,2069,2076
2.44e+06,2070,2074
2.44e+06,2062,2071
2.44e+06,2055,2065
2.44e+06,2050,2058
2.44e+06,2047,2053
2.44e+06,2040,2046
2.44e+06,2033,2049
2.44e+06,2030,2044
2.44e+06,2032,2048
2.44e+06,2038,2048
2.44e+06,2032,2047
2.44e+06,2028,2038
2.44e+06,2030,2040
2.44e+06,2035,2047
2.44e+06,2028,2047
2.44e+06,2034,2040
2.44e+06,2031,2050
2.44e+06,2029,2044
2.44e+06,2036,2049
2.44e+06,2034,2050
2.44e+06,2030,2044
2.44e+06,2021,2044
2.44e+06,2023,2045
2.44e+06,2031,2042
2.44e+06,2028,2040
2.44e+06,2021,2035
2.4401e+06,1994,2012
2.4401e+06,2013,2014
2.4401e+06,2042,2031
2.4401e+06,2086,2057
2.4401e+06,2151,2119
2.4401e+06,2217,2180
2.4401e+06,2264,2233
2.4401e+06,2303,2306
2.4401e+06,2289,2302
2.4401e+06,2228,2250
2.4401e+06,2160,2193
2.4401e+06,2093,2118
2.4401e+06,2043,2068
2.4401e+06,2040,2050
2.4401e+06,2038,2050
2.4401e+06,2039,2049
2.4401e+06,2038,2047
2.4401e+06,2043,2054
2.4401e+06,2039,2051
2.4401e+06,2037,2050
2.4401e+06,2037,2045
2.4401e+06,2035,2042
2.4401e+06,2033,2042
2.4401e+06,2039,2042
2.4401e+06,2037,2046
2.4402e+06,2032,2045
2.4402e+06,2036,2035
2.4402e+06,2034,2043
2.4402e+06,2039,2048
2.4402e+06,2038,2043
2.4402e+06,2039,2049
2.4402e+06,2040,2038
2.4402e+06,2038,2046
2.4402e+06,2038,2047
2.4402e+06,2043,2049
2.4402e+06,2044,2049
2.4402e+06,2042,2041
2.4402e+06,2036,2049
2.4402e+06,2049,2053
2.4402e+06,2047,2045
2.4402e+06,2047,2055
2.4402e+06,2033,2047
2.4402e+06,2044,2042
2.4402e+06,2048,2050
2.4402e+06,2044,2056
2.4402e+06,2050,2056
2.4402e+06,2041,2050
2.4402e+06,2048,2050
2.4402e+06,2050,2051
2.4402e+06,2060,2063
2.4402e+06,2060,2061
2.4403e+06,2054,2063
2.4403e+06,2060,2055
2.4403e+06,2056,2060
2.4403e+06,2067,2067
2.4403e+06,2066,2066
2.4403e+06,2063,2061
2.4403e+06,2069,2065
2.4403e+06,2070,2064
2.4403e+06,2071,2067
2.4403e+06,2074,2071
2.4403e+06,2076,2066
2.4403e+06,2074,2067
2.4403e+06,2077,2071
2.4403e+06,2091,2082
2.4403e+06,2101,2085
2.4403e+06,2097,2079
2.4403e+06,2095,2081
2.4403e+06,2096,2078
2.4403e+06,2098,2082
2.4403e+06,2107,2089
2.4403e+06,2102,2086
2.4403e+06,2101,2080
2.4403e+06,2102,2082
2.4403e+06,2112,2097
2.4403e+06,2110,2090
2.4403e+06,2105,2092
2.4404e+06,2101,2085
2.4404e+06,2103,2090
2.4404e+06,2102,2084
2.4404e+06,2099,2090
2.4404e+06,2090,2083
2.4404e+06,2078,2074
2.4404e+06,2068,2070
2.4404e+06,2064,2072
2.4404e+06,2056,2068
2.4404e+06,2061,2065
2.4404e+06,2054,2064
2.4404e+06,2046,2058
2.4404e+06,2049,2058
2.4404e+06,2048,2062
2.4404e+06,2041,2053
2.4404e+06,2040,2054
2.4404e+06,2036,2056
2.4404e+06,2037,2049
2.4404e+06,2047,2062
2.4404e+06,2037,2053
2.4404e+06,2033,2057
2.4404e+06,2030,2052
2.4404e+06,2032,2056
2.4404e+06,2043,2059
2.4404e+06,2043,2062
2.4405e+06,2043,2059
2.4405e+06,2031,2054
2.4405e+06,2038,2059
2.4405e+06,2047,2062
2.4405e+06,2035,2058
2.4405e+06,2045,2056
2.4405e+06,2036,2053
2.4405e+06,2041,2053
2.4405e+06,2045,2058
2.4405e+06,2041,2060
2.4405e+06,2043,2059
2.4405e+06,2041,2055
2.4405e+06,2039,2054
2.4405e+06,2045,2053
2.4405e+06,2044,2061
2.4405e+06,2041,2058
2.4405e+06,2041,2052
2.4405e+06,2041,2057
2.4405e+06,2047,2059
2.4405e+06,2047,2058
2.4405e+06,2045,2061
2.4405e+06,2044,2054
2.4405e+06,2035,2049
2.4405e+06,2041,2056
2.4405e+06,2050,2063
2.4405e+06,2041,2057
2.4406e+06,2038,2055
2.4406e+06,2048,2058
2.4406e+06,2047,2064
2.4406e+06,2046,2060
2.4406e+06,2045,2060
2.4406e+06,2042,2058
2.4406e+06,2039,2052
2.4406e+06,2044,2059
2.4406e+06,2045,2061
2.4406e+06,2045,2056
2.4406e+06,2041,2052
2.4406e+06,2040,2056
2.4406e+06,2041,2052
2.4406e+06,2044,2057
2.4406e+06,2041,2056
2.4406e+06,2043,2057
2.4406e+06,2038,2047
2.4406e+06,2041,2055
2.4406e+06,2047,2058
2.4406e+06,2048,2066
2.4406e+06,2040,2052
2.4406e+06,2030,2045
2.4406e+06,2043,2058
2.4406e+06,2046,2061
2.4406e+06,2046,2054
2.4407e+06,2043,2057
2.4407e+06,2037,2051
2.4407e+06,2040,2055
2.4407e+06,2042,2063
2.4407e+06,2046,2057
2.4407e+06,2046,2057
2.4407e+06,2042,2057
2.4407e+06,2040,2055
2.4407e+06,2042,2051
2.4407e+06,2044,2058
2.4407e+06,2039,2055
2.4407e+06,2038,2054
2.4407e+06,2038,2055
2.4407e+06,2048,2063
2.4407e+06,2053,2060
2.4407e+06,2050,2064
2.4407e+06,2050,2065
2.4407e+06,2059,2065
2.4407e+06,2055,2068
2.4407e+06,2056,2070
2.4407e+06,2048,2070
2.4407e+06,2065,2070
2.4407e+06,2068,2064
2.4407e+06,2073,2065
2.4407e+06,2080,2088
2.4407e+06,2078,2080
2.4408e+06,2079,2077
2.4408e+06,2075,2082
2.4408e+06,2077,2079
